time,ecg
0.0,-0.19322033898305085
0.002777777777777778,-0.17966101694915254
0.005555555555555556,-0.16610169491525423
0.008333333333333333,-0.16610169491525423
0.011111111111111112,-0.17966101694915254
0.01388888888888889,-0.1864406779661017
0.016666666666666666,-0.17288135593220338
0.019444444444444445,-0.16271186440677965
0.022222222222222223,-0.17627118644067796
0.025,-0.17966101694915254
0.02777777777777778,-0.18305084745762712
0.030555555555555558,-0.17966101694915254
0.03333333333333333,-0.18983050847457628
0.036111111111111115,-0.19661016949152543
0.03888888888888889,-0.19661016949152543
0.04166666666666667,-0.20677966101694914
0.044444444444444446,-0.2033898305084746
0.04722222222222222,-0.19661016949152543
0.05,-0.19322033898305085
0.05277777777777778,-0.19661016949152543
0.05555555555555556,-0.19661016949152543
0.058333333333333334,-0.20677966101694914
0.061111111111111116,-0.2
0.0638888888888889,-0.18983050847457628
0.06666666666666667,-0.18305084745762712
0.06944444444444445,-0.19661016949152543
0.07222222222222223,-0.21694915254237288
0.075,-0.2271186440677966
0.07777777777777778,-0.21016949152542372
0.08055555555555556,-0.18983050847457628
0.08333333333333334,-0.19661016949152543
0.08611111111111111,-0.2305084745762712
0.08888888888888889,-0.2440677966101695
0.09166666666666667,-0.22372881355932203
0.09444444444444444,-0.20677966101694914
0.09722222222222222,-0.20677966101694914
0.1,-0.22033898305084745
0.10277777777777779,-0.23389830508474577
0.10555555555555556,-0.2305084745762712
0.10833333333333334,-0.2135593220338983
0.11111111111111112,-0.18305084745762712
0.11388888888888889,-0.17966101694915254
0.11666666666666667,-0.20677966101694914
0.11944444444444445,-0.24067796610169492
0.12222222222222223,-0.24067796610169492
0.125,-0.23389830508474577
0.1277777777777778,-0.2305084745762712
0.13055555555555556,-0.23389830508474577
0.13333333333333333,-0.2305084745762712
0.13611111111111113,-0.23389830508474577
0.1388888888888889,-0.2440677966101695
0.14166666666666666,-0.2542372881355932
0.14444444444444446,-0.24745762711864408
0.14722222222222223,-0.23389830508474577
0.15,-0.21694915254237288
0.1527777777777778,-0.2135593220338983
0.15555555555555556,-0.23389830508474577
0.15833333333333333,-0.24745762711864408
0.16111111111111112,-0.24067796610169492
0.1638888888888889,-0.22033898305084745
0.16666666666666669,-0.21694915254237288
0.16944444444444445,-0.2135593220338983
0.17222222222222222,-0.2305084745762712
0.17500000000000002,-0.2576271186440678
0.17777777777777778,-0.2542372881355932
0.18055555555555555,-0.23728813559322035
0.18333333333333335,-0.23389830508474577
0.18611111111111112,-0.24067796610169492
0.18888888888888888,-0.24745762711864408
0.19166666666666668,-0.24067796610169492
0.19444444444444445,-0.23389830508474577
0.19722222222222224,-0.2271186440677966
0.2,-0.21694915254237288
0.20277777777777778,-0.21016949152542372
0.20555555555555557,-0.21694915254237288
0.20833333333333334,-0.22033898305084745
0.2111111111111111,-0.21694915254237288
0.2138888888888889,-0.21694915254237288
0.21666666666666667,-0.23389830508474577
0.21944444444444444,-0.2542372881355932
0.22222222222222224,-0.25084745762711863
0.225,-0.23389830508474577
0.22777777777777777,-0.21694915254237288
0.23055555555555557,-0.24067796610169492
0.23333333333333334,-0.25084745762711863
0.23611111111111113,-0.2271186440677966
0.2388888888888889,-0.2271186440677966
0.24166666666666667,-0.2440677966101695
0.24444444444444446,-0.24745762711864408
0.24722222222222223,-0.25084745762711863
0.25,-0.2440677966101695
0.25277777777777777,-0.24745762711864408
0.2555555555555556,-0.24067796610169492
0.25833333333333336,-0.2271186440677966
0.2611111111111111,-0.2271186440677966
0.2638888888888889,-0.24067796610169492
0.26666666666666666,-0.23389830508474577
0.26944444444444443,-0.22372881355932203
0.27222222222222225,-0.21016949152542372
0.275,-0.2033898305084746
0.2777777777777778,-0.19322033898305085
0.28055555555555556,-0.18305084745762712
0.2833333333333333,-0.17288135593220338
0.28611111111111115,-0.17627118644067796
0.2888888888888889,-0.1694915254237288
0.2916666666666667,-0.16271186440677965
0.29444444444444445,-0.15254237288135594
0.2972222222222222,-0.13898305084745763
0.3,-0.13898305084745763
0.3027777777777778,-0.13898305084745763
0.3055555555555556,-0.13559322033898305
0.30833333333333335,-0.11186440677966102
0.3111111111111111,-0.0847457627118644
0.3138888888888889,-0.06779661016949153
0.31666666666666665,-0.05084745762711865
0.3194444444444445,-0.04067796610169491
0.32222222222222224,-0.04067796610169491
0.325,-0.04406779661016949
0.3277777777777778,-0.04745762711864407
0.33055555555555555,-0.04067796610169491
0.33333333333333337,-0.020338983050847456
0.33611111111111114,-0.02711864406779661
0.3388888888888889,-0.061016949152542375
0.3416666666666667,-0.0847457627118644
0.34444444444444444,-0.09830508474576272
0.3472222222222222,-0.10847457627118644
0.35000000000000003,-0.10847457627118644
0.3527777777777778,-0.1152542372881356
0.35555555555555557,-0.1152542372881356
0.35833333333333334,-0.12203389830508475
0.3611111111111111,-0.13898305084745763
0.36388888888888893,-0.16271186440677965
0.3666666666666667,-0.18305084745762712
0.36944444444444446,-0.20677966101694914
0.37222222222222223,-0.22372881355932203
0.375,-0.24745762711864408
0.37777777777777777,-0.26101694915254237
0.3805555555555556,-0.2711864406779661
0.38333333333333336,-0.2847457627118644
0.3861111111111111,-0.29491525423728815
0.3888888888888889,-0.2847457627118644
0.39166666666666666,-0.2711864406779661
0.3944444444444445,-0.26440677966101694
0.39722222222222225,-0.2711864406779661
0.4,-0.27796610169491526
0.4027777777777778,-0.288135593220339
0.40555555555555556,-0.2983050847457627
0.4083333333333333,-0.29491525423728815
0.41111111111111115,-0.2711864406779661
0.4138888888888889,-0.2745762711864407
0.4166666666666667,-0.28135593220338984
0.41944444444444445,-0.2847457627118644
0.4222222222222222,-0.288135593220339
0.425,-0.28135593220338984
0.4277777777777778,-0.2711864406779661
0.4305555555555556,-0.2847457627118644
0.43333333333333335,-0.31186440677966104
0.4361111111111111,-0.33559322033898303
0.4388888888888889,-0.31186440677966104
0.4416666666666667,-0.23728813559322035
0.4444444444444445,-0.15593220338983052
0.44722222222222224,-0.05084745762711865
0.45,0.11186440677966102
0.4527777777777778,0.3423728813559322
0.45555555555555555,0.6305084745762712
0.45833333333333337,1.0440677966101695
0.46111111111111114,1.6440677966101696
0.4638888888888889,2.3254237288135595
0.4666666666666667,2.9322033898305087
0.46944444444444444,3.2508474576271187
0.47222222222222227,3.169491525423729
0.47500000000000003,2.8067796610169493
0.4777777777777778,2.3389830508474576
0.48055555555555557,1.7661016949152541
0.48333333333333334,0.9966101694915255
0.4861111111111111,0.17288135593220338
0.48888888888888893,-0.42033898305084744
0.4916666666666667,-0.7491525423728813
0.49444444444444446,-0.8508474576271187
0.49722222222222223,-0.7864406779661017
0.5,-0.6406779661016949
0.5027777777777778,-0.5457627118644067
0.5055555555555555,-0.49830508474576274
0.5083333333333333,-0.46440677966101696
0.5111111111111112,-0.423728813559322
0.513888888888889,-0.3694915254237288
0.5166666666666667,-0.3389830508474576
0.5194444444444445,-0.3423728813559322
0.5222222222222223,-0.3288135593220339
0.525,-0.3152542372881356
0.5277777777777778,-0.2983050847457627
0.5305555555555556,-0.27796610169491526
0.5333333333333333,-0.28135593220338984
0.5361111111111111,-0.29491525423728815
0.5388888888888889,-0.2983050847457627
0.5416666666666667,-0.29491525423728815
0.5444444444444445,-0.288135593220339
0.5472222222222223,-0.2677966101694915
0.55,-0.2542372881355932
0.5527777777777778,-0.2677966101694915
0.5555555555555556,-0.288135593220339
0.5583333333333333,-0.288135593220339
0.5611111111111111,-0.2745762711864407
0.5638888888888889,-0.2711864406779661
0.5666666666666667,-0.26101694915254237
0.5694444444444444,-0.25084745762711863
0.5722222222222223,-0.26101694915254237
0.5750000000000001,-0.2745762711864407
0.5777777777777778,-0.2677966101694915
0.5805555555555556,-0.24745762711864408
0.5833333333333334,-0.2305084745762712
0.5861111111111111,-0.21694915254237288
0.5888888888888889,-0.2271186440677966
0.5916666666666667,-0.2576271186440678
0.5944444444444444,-0.2711864406779661
0.5972222222222222,-0.25084745762711863
0.6,-0.24067796610169492
0.6027777777777777,-0.2576271186440678
0.6055555555555556,-0.2711864406779661
0.6083333333333334,-0.26101694915254237
0.6111111111111112,-0.24067796610169492
0.6138888888888889,-0.22372881355932203
0.6166666666666667,-0.2305084745762712
0.6194444444444445,-0.23728813559322035
0.6222222222222222,-0.2305084745762712
0.625,-0.22372881355932203
0.6277777777777778,-0.21016949152542372
0.6305555555555555,-0.2
0.6333333333333333,-0.2033898305084746
0.6361111111111112,-0.21694915254237288
0.638888888888889,-0.2271186440677966
0.6416666666666667,-0.21694915254237288
0.6444444444444445,-0.2033898305084746
0.6472222222222223,-0.2
0.65,-0.19661016949152543
0.6527777777777778,-0.19322033898305085
0.6555555555555556,-0.18305084745762712
0.6583333333333333,-0.17627118644067796
0.6611111111111111,-0.16271186440677965
0.6638888888888889,-0.14576271186440679
0.6666666666666667,-0.1423728813559322
0.6694444444444445,-0.1423728813559322
0.6722222222222223,-0.12542372881355932
0.675,-0.10847457627118644
0.6777777777777778,-0.0847457627118644
0.6805555555555556,-0.0711864406779661
0.6833333333333333,-0.06440677966101695
0.6861111111111111,-0.05423728813559322
0.6888888888888889,-0.04067796610169491
0.6916666666666667,-0.023728813559322035
0.6944444444444444,0.013559322033898305
0.6972222222222223,0.04067796610169491
0.7000000000000001,0.0576271186440678
0.7027777777777778,0.06440677966101695
0.7055555555555556,0.0711864406779661
0.7083333333333334,0.09830508474576272
0.7111111111111111,0.13898305084745763
0.7138888888888889,0.15932203389830507
0.7166666666666667,0.1694915254237288
0.7194444444444444,0.1864406779661017
0.7222222222222222,0.2135593220338983
0.725,0.24745762711864408
0.7277777777777779,0.2847457627118644
0.7305555555555556,0.31864406779661014
0.7333333333333334,0.34915254237288135
0.7361111111111112,0.36610169491525424
0.7388888888888889,0.37966101694915255
0.7416666666666667,0.4033898305084746
0.7444444444444445,0.43050847457627117
0.7472222222222222,0.4440677966101695
0.75,0.46440677966101696
0.7527777777777778,0.48135593220338985
0.7555555555555555,0.488135593220339
0.7583333333333334,0.4847457627118644
0.7611111111111112,0.49830508474576274
0.763888888888889,0.5220338983050847
0.7666666666666667,0.5389830508474577
0.7694444444444445,0.535593220338983
0.7722222222222223,0.5288135593220339
0.775,0.5152542372881356
0.7777777777777778,0.5084745762711864
0.7805555555555556,0.5050847457627119
0.7833333333333333,0.5016949152542373
0.7861111111111111,0.48135593220338985
0.788888888888889,0.46779661016949153
0.7916666666666667,0.46779661016949153
0.7944444444444445,0.46779661016949153
0.7972222222222223,0.4542372881355932
0.8,0.43050847457627117
0.8027777777777778,0.4
0.8055555555555556,0.3728813559322034
0.8083333333333333,0.3423728813559322
0.8111111111111111,0.30847457627118646
0.8138888888888889,0.2745762711864407
0.8166666666666667,0.2440677966101695
0.8194444444444445,0.22033898305084745
0.8222222222222223,0.2
0.8250000000000001,0.1694915254237288
0.8277777777777778,0.13220338983050847
0.8305555555555556,0.1016949152542373
0.8333333333333334,0.0711864406779661
0.8361111111111111,0.023728813559322035
0.8388888888888889,-0.013559322033898305
0.8416666666666667,-0.04067796610169491
0.8444444444444444,-0.05423728813559322
0.8472222222222222,-0.0711864406779661
0.85,-0.09491525423728814
0.8527777777777779,-0.1152542372881356
0.8555555555555556,-0.13898305084745763
0.8583333333333334,-0.15593220338983052
0.8611111111111112,-0.17288135593220338
0.8638888888888889,-0.18305084745762712
0.8666666666666667,-0.18983050847457628
0.8694444444444445,-0.18983050847457628
0.8722222222222222,-0.19661016949152543
0.875,-0.2
0.8777777777777778,-0.21694915254237288
0.8805555555555555,-0.2271186440677966
0.8833333333333334,-0.23728813559322035
0.8861111111111112,-0.2440677966101695
0.888888888888889,-0.2440677966101695
0.8916666666666667,-0.26101694915254237
0.8944444444444445,-0.2677966101694915
0.8972222222222223,-0.2711864406779661
0.9,-0.2745762711864407
0.9027777777777778,-0.2847457627118644
0.9055555555555556,-0.288135593220339
0.9083333333333333,-0.288135593220339
0.9111111111111111,-0.29152542372881357
0.913888888888889,-0.29491525423728815
0.9166666666666667,-0.3050847457627119
0.9194444444444445,-0.30847457627118646
0.9222222222222223,-0.31186440677966104
0.925,-0.31186440677966104
0.9277777777777778,-0.3050847457627119
0.9305555555555556,-0.288135593220339
0.9333333333333333,-0.288135593220339
0.9361111111111111,-0.3050847457627119
0.9388888888888889,-0.3220338983050847
0.9416666666666667,-0.3152542372881356
0.9444444444444445,-0.29491525423728815
0.9472222222222223,-0.2847457627118644
0.9500000000000001,-0.29491525423728815
0.9527777777777778,-0.3152542372881356
0.9555555555555556,-0.3423728813559322
0.9583333333333334,-0.34576271186440677
0.9611111111111111,-0.3152542372881356
0.9638888888888889,-0.288135593220339
0.9666666666666667,-0.2847457627118644
0.9694444444444444,-0.29152542372881357
0.9722222222222222,-0.2983050847457627
0.9750000000000001,-0.29491525423728815
0.9777777777777779,-0.2711864406779661
0.9805555555555556,-0.25084745762711863
0.9833333333333334,-0.24067796610169492
0.9861111111111112,-0.25084745762711863
0.9888888888888889,-0.26440677966101694
0.9916666666666667,-0.2711864406779661
0.9944444444444445,-0.2542372881355932
0.9972222222222222,-0.2271186440677966
1.0,-0.21694915254237288
1.0027777777777778,-0.21694915254237288
1.0055555555555555,-0.22372881355932203
1.0083333333333333,-0.23389830508474577
1.011111111111111,-0.23389830508474577
1.0138888888888888,-0.21694915254237288
1.0166666666666666,-0.20677966101694914
1.0194444444444444,-0.2
1.0222222222222224,-0.18983050847457628
1.0250000000000001,-0.17288135593220338
1.027777777777778,-0.1694915254237288
1.0305555555555557,-0.15932203389830507
1.0333333333333334,-0.14915254237288136
1.0361111111111112,-0.15932203389830507
1.038888888888889,-0.18983050847457628
1.0416666666666667,-0.22372881355932203
1.0444444444444445,-0.22372881355932203
1.0472222222222223,-0.2033898305084746
1.05,-0.18305084745762712
1.0527777777777778,-0.1864406779661017
1.0555555555555556,-0.19661016949152543
1.0583333333333333,-0.18983050847457628
1.0611111111111111,-0.17627118644067796
1.0638888888888889,-0.17627118644067796
1.0666666666666667,-0.17966101694915254
1.0694444444444444,-0.1864406779661017
1.0722222222222222,-0.1864406779661017
1.075,-0.17966101694915254
1.0777777777777777,-0.17288135593220338
1.0805555555555555,-0.1694915254237288
1.0833333333333335,-0.19661016949152543
1.0861111111111112,-0.2271186440677966
1.088888888888889,-0.23728813559322035
1.0916666666666668,-0.21694915254237288
1.0944444444444446,-0.20677966101694914
1.0972222222222223,-0.21016949152542372
1.1,-0.21694915254237288
1.1027777777777779,-0.21694915254237288
1.1055555555555556,-0.22372881355932203
1.1083333333333334,-0.23389830508474577
1.1111111111111112,-0.22372881355932203
1.113888888888889,-0.21694915254237288
1.1166666666666667,-0.21694915254237288
1.1194444444444445,-0.2271186440677966
1.1222222222222222,-0.23728813559322035
1.125,-0.22033898305084745
1.1277777777777778,-0.2033898305084746
1.1305555555555555,-0.21694915254237288
1.1333333333333333,-0.2440677966101695
1.136111111111111,-0.24745762711864408
1.1388888888888888,-0.24067796610169492
1.1416666666666666,-0.24745762711864408
1.1444444444444446,-0.24745762711864408
1.1472222222222224,-0.23389830508474577
1.1500000000000001,-0.21694915254237288
1.152777777777778,-0.21694915254237288
1.1555555555555557,-0.2271186440677966
1.1583333333333334,-0.24067796610169492
1.1611111111111112,-0.2542372881355932
1.163888888888889,-0.26101694915254237
1.1666666666666667,-0.25084745762711863
1.1694444444444445,-0.23728813559322035
1.1722222222222223,-0.23389830508474577
1.175,-0.2305084745762712
1.1777777777777778,-0.22372881355932203
1.1805555555555556,-0.2271186440677966
1.1833333333333333,-0.2305084745762712
1.1861111111111111,-0.24745762711864408
1.1888888888888889,-0.2576271186440678
1.1916666666666667,-0.2542372881355932
1.1944444444444444,-0.23728813559322035
1.1972222222222222,-0.24067796610169492
1.2,-0.23389830508474577
1.2027777777777777,-0.23728813559322035
1.2055555555555555,-0.2542372881355932
1.2083333333333335,-0.26440677966101694
1.2111111111111112,-0.24745762711864408
1.213888888888889,-0.23728813559322035
1.2166666666666668,-0.23728813559322035
1.2194444444444446,-0.2440677966101695
1.2222222222222223,-0.24745762711864408
1.225,-0.2711864406779661
1.2277777777777779,-0.2677966101694915
1.2305555555555556,-0.24745762711864408
1.2333333333333334,-0.22033898305084745
1.2361111111111112,-0.21694915254237288
1.238888888888889,-0.24067796610169492
1.2416666666666667,-0.2542372881355932
1.2444444444444445,-0.24067796610169492
1.2472222222222222,-0.22033898305084745
1.25,-0.2271186440677966
1.2527777777777778,-0.2440677966101695
1.2555555555555555,-0.2745762711864407
1.2583333333333333,-0.2847457627118644
1.261111111111111,-0.2677966101694915
1.2638888888888888,-0.2440677966101695
1.2666666666666666,-0.2271186440677966
1.2694444444444446,-0.2440677966101695
1.2722222222222224,-0.2576271186440678
1.2750000000000001,-0.2542372881355932
1.277777777777778,-0.2440677966101695
1.2805555555555557,-0.2440677966101695
1.2833333333333334,-0.2440677966101695
1.2861111111111112,-0.2576271186440678
1.288888888888889,-0.26101694915254237
1.2916666666666667,-0.25084745762711863
1.2944444444444445,-0.22372881355932203
1.2972222222222223,-0.21694915254237288
1.3,-0.2305084745762712
1.3027777777777778,-0.2440677966101695
1.3055555555555556,-0.23728813559322035
1.3083333333333333,-0.24067796610169492
1.3111111111111111,-0.24067796610169492
1.3138888888888889,-0.2305084745762712
1.3166666666666667,-0.20677966101694914
1.3194444444444444,-0.19322033898305085
1.3222222222222222,-0.2033898305084746
1.325,-0.21016949152542372
1.3277777777777777,-0.19661016949152543
1.3305555555555557,-0.17288135593220338
1.3333333333333335,-0.15932203389830507
1.3361111111111112,-0.16610169491525423
1.338888888888889,-0.15254237288135594
1.3416666666666668,-0.1423728813559322
1.3444444444444446,-0.13559322033898305
1.3472222222222223,-0.12542372881355932
1.35,-0.10847457627118644
1.3527777777777779,-0.1016949152542373
1.3555555555555556,-0.09830508474576272
1.3583333333333334,-0.09152542372881356
1.3611111111111112,-0.06779661016949153
1.363888888888889,-0.05423728813559322
1.3666666666666667,-0.0711864406779661
1.3694444444444445,-0.10508474576271186
1.3722222222222222,-0.11186440677966102
1.375,-0.09491525423728814
1.3777777777777778,-0.06779661016949153
1.3805555555555555,-0.061016949152542375
1.3833333333333333,-0.0711864406779661
1.386111111111111,-0.1016949152542373
1.3888888888888888,-0.13898305084745763
1.3916666666666668,-0.1694915254237288
1.3944444444444446,-0.15932203389830507
1.3972222222222224,-0.13559322033898305
1.4000000000000001,-0.1288135593220339
1.402777777777778,-0.14576271186440679
1.4055555555555557,-0.17966101694915254
1.4083333333333334,-0.2033898305084746
1.4111111111111112,-0.2033898305084746
1.413888888888889,-0.20677966101694914
1.4166666666666667,-0.23728813559322035
1.4194444444444445,-0.26101694915254237
1.4222222222222223,-0.2711864406779661
1.425,-0.2677966101694915
1.4277777777777778,-0.27796610169491526
1.4305555555555556,-0.2983050847457627
1.4333333333333333,-0.3016949152542373
1.4361111111111111,-0.3050847457627119
1.4388888888888889,-0.3016949152542373
1.4416666666666667,-0.2983050847457627
1.4444444444444444,-0.29152542372881357
1.4472222222222222,-0.28135593220338984
1.45,-0.2745762711864407
1.4527777777777777,-0.3016949152542373
1.4555555555555557,-0.31864406779661014
1.4583333333333335,-0.3220338983050847
1.4611111111111112,-0.31186440677966104
1.463888888888889,-0.30847457627118646
1.4666666666666668,-0.30847457627118646
1.4694444444444446,-0.3220338983050847
1.4722222222222223,-0.33559322033898303
1.475,-0.3288135593220339
1.4777777777777779,-0.3220338983050847
1.4805555555555556,-0.2983050847457627
1.4833333333333334,-0.2542372881355932
1.4861111111111112,-0.2
1.488888888888889,-0.10847457627118644
1.4916666666666667,0.03728813559322034
1.4944444444444445,0.28135593220338984
1.4972222222222222,0.5830508474576271
1.5,0.9898305084745763
1.5027777777777778,1.5525423728813559
1.5055555555555555,2.230508474576271
1.5083333333333333,2.857627118644068
1.511111111111111,3.2508474576271187
1.5138888888888888,3.2542372881355934
1.5166666666666668,2.9593220338983053
1.5194444444444446,2.5559322033898306
1.5222222222222224,2.0677966101694913
1.5250000000000001,1.3457627118644069
1.527777777777778,0.4610169491525424
1.5305555555555557,-0.2542372881355932
1.5333333333333334,-0.6305084745762712
1.5361111111111112,-0.7559322033898305
1.538888888888889,-0.6983050847457627
1.5416666666666667,-0.5627118644067797
1.5444444444444445,-0.4542372881355932
1.5472222222222223,-0.423728813559322
1.55,-0.41694915254237286
1.5527777777777778,-0.39661016949152544
1.5555555555555556,-0.37966101694915255
1.5583333333333333,-0.3593220338983051
1.5611111111111111,-0.33559322033898303
1.5638888888888889,-0.3152542372881356
1.5666666666666667,-0.288135593220339
1.5694444444444444,-0.28135593220338984
1.5722222222222222,-0.28135593220338984
1.575,-0.29491525423728815
1.577777777777778,-0.30847457627118646
1.5805555555555557,-0.33220338983050846
1.5833333333333335,-0.33559322033898303
1.5861111111111112,-0.3288135593220339
1.588888888888889,-0.3152542372881356
1.5916666666666668,-0.31186440677966104
1.5944444444444446,-0.3220338983050847
1.5972222222222223,-0.31186440677966104
1.6,-0.2847457627118644
1.6027777777777779,-0.27796610169491526
1.6055555555555556,-0.29491525423728815
1.6083333333333334,-0.2847457627118644
1.6111111111111112,-0.26101694915254237
1.613888888888889,-0.26440677966101694
1.6166666666666667,-0.27796610169491526
1.6194444444444445,-0.288135593220339
1.6222222222222222,-0.2983050847457627
1.625,-0.3050847457627119
1.6277777777777778,-0.27796610169491526
1.6305555555555555,-0.26101694915254237
1.6333333333333333,-0.2677966101694915
1.636111111111111,-0.2745762711864407
1.638888888888889,-0.2745762711864407
1.6416666666666668,-0.2677966101694915
1.6444444444444446,-0.2677966101694915
1.6472222222222224,-0.26440677966101694
1.6500000000000001,-0.26440677966101694
1.652777777777778,-0.2677966101694915
1.6555555555555557,-0.2677966101694915
1.6583333333333334,-0.2677966101694915
1.6611111111111112,-0.26101694915254237
1.663888888888889,-0.2440677966101695
1.6666666666666667,-0.23728813559322035
1.6694444444444445,-0.24067796610169492
1.6722222222222223,-0.2440677966101695
1.675,-0.23728813559322035
1.6777777777777778,-0.23728813559322035
1.6805555555555556,-0.23728813559322035
1.6833333333333333,-0.22372881355932203
1.6861111111111111,-0.2135593220338983
1.6888888888888889,-0.2135593220338983
1.6916666666666667,-0.21694915254237288
1.6944444444444444,-0.2
1.6972222222222222,-0.16271186440677965
1.7,-0.13898305084745763
1.702777777777778,-0.1694915254237288
1.7055555555555557,-0.2033898305084746
1.7083333333333335,-0.19322033898305085
1.7111111111111112,-0.14915254237288136
1.713888888888889,-0.12203389830508475
1.7166666666666668,-0.09830508474576272
1.7194444444444446,-0.1016949152542373
1.7222222222222223,-0.10847457627118644
1.725,-0.10847457627118644
1.7277777777777779,-0.06779661016949153
1.7305555555555556,-0.04406779661016949
1.7333333333333334,-0.03389830508474576
1.7361111111111112,-0.02711864406779661
1.738888888888889,-0.010169491525423728
1.7416666666666667,0.013559322033898305
1.7444444444444445,0.05084745762711865
1.7472222222222222,0.08135593220338982
1.75,0.10847457627118644
1.7527777777777778,0.13220338983050847
1.7555555555555555,0.14576271186440679
1.7583333333333333,0.16610169491525423
1.761111111111111,0.19661016949152543
1.763888888888889,0.22372881355932203
1.7666666666666668,0.24745762711864408
1.7694444444444446,0.2745762711864407
1.7722222222222224,0.3050847457627119
1.7750000000000001,0.3288135593220339
1.777777777777778,0.34915254237288135
1.7805555555555557,0.3728813559322034
1.7833333333333334,0.4033898305084746
1.7861111111111112,0.4271186440677966
1.788888888888889,0.4440677966101695
1.7916666666666667,0.4711864406779661
1.7944444444444445,0.49491525423728816
1.7972222222222223,0.511864406779661
1.8,0.5322033898305085
1.8027777777777778,0.5288135593220339
1.8055555555555556,0.5254237288135594
1.8083333333333333,0.5220338983050847
1.8111111111111111,0.5220338983050847
1.8138888888888889,0.5254237288135594
1.8166666666666667,0.5254237288135594
1.8194444444444444,0.5220338983050847
1.8222222222222222,0.511864406779661
1.8250000000000002,0.5152542372881356
1.827777777777778,0.5389830508474577
1.8305555555555557,0.5491525423728814
1.8333333333333335,0.5389830508474577
1.8361111111111112,0.488135593220339
1.838888888888889,0.4271186440677966
1.8416666666666668,0.4067796610169492
1.8444444444444446,0.42033898305084744
1.8472222222222223,0.4101694915254237
1.85,0.37966101694915255
1.8527777777777779,0.33220338983050846
1.8555555555555556,0.28135593220338984
1.8583333333333334,0.24067796610169492
1.8611111111111112,0.2271186440677966
1.863888888888889,0.20677966101694914
1.8666666666666667,0.16610169491525423
1.8694444444444445,0.12203389830508475
1.8722222222222222,0.0847457627118644
1.875,0.061016949152542375
1.8777777777777778,0.04406779661016949
1.8805555555555555,0.010169491525423728
1.8833333333333333,-0.023728813559322035
1.8861111111111113,-0.05423728813559322
1.888888888888889,-0.08135593220338982
1.8916666666666668,-0.09830508474576272
1.8944444444444446,-0.1016949152542373
1.8972222222222224,-0.1152542372881356
1.9000000000000001,-0.13898305084745763
1.902777777777778,-0.1694915254237288
1.9055555555555557,-0.18983050847457628
1.9083333333333334,-0.20677966101694914
1.9111111111111112,-0.2135593220338983
1.913888888888889,-0.2135593220338983
1.9166666666666667,-0.2135593220338983
1.9194444444444445,-0.22033898305084745
1.9222222222222223,-0.2305084745762712
1.925,-0.23389830508474577
1.9277777777777778,-0.22372881355932203
1.9305555555555556,-0.23389830508474577
1.9333333333333333,-0.25084745762711863
1.9361111111111111,-0.2677966101694915
1.9388888888888889,-0.26440677966101694
1.9416666666666667,-0.26101694915254237
1.9444444444444444,-0.2677966101694915
1.9472222222222222,-0.2576271186440678
1.9500000000000002,-0.2440677966101695
1.952777777777778,-0.2542372881355932
1.9555555555555557,-0.2677966101694915
1.9583333333333335,-0.2711864406779661
1.9611111111111112,-0.2711864406779661
1.963888888888889,-0.2745762711864407
1.9666666666666668,-0.27796610169491526
1.9694444444444446,-0.3050847457627119
1.9722222222222223,-0.3152542372881356
1.975,-0.288135593220339
1.9777777777777779,-0.27796610169491526
1.9805555555555556,-0.288135593220339
1.9833333333333334,-0.2983050847457627
1.9861111111111112,-0.31864406779661014
1.988888888888889,-0.3288135593220339
1.9916666666666667,-0.3050847457627119
1.9944444444444445,-0.2983050847457627
1.9972222222222222,-0.29491525423728815
2.0,-0.27796610169491526
2.0027777777777778,-0.26440677966101694
2.0055555555555555,-0.2711864406779661
2.0083333333333333,-0.29491525423728815
2.011111111111111,-0.3050847457627119
2.013888888888889,-0.30847457627118646
2.0166666666666666,-0.30847457627118646
2.0194444444444444,-0.3220338983050847
2.022222222222222,-0.3254237288135593
2.025,-0.3152542372881356
2.0277777777777777,-0.29152542372881357
2.0305555555555554,-0.27796610169491526
2.033333333333333,-0.26440677966101694
2.036111111111111,-0.26440677966101694
2.0388888888888888,-0.2711864406779661
2.041666666666667,-0.2711864406779661
2.0444444444444447,-0.2542372881355932
2.0472222222222225,-0.25084745762711863
2.0500000000000003,-0.24745762711864408
2.052777777777778,-0.24067796610169492
2.055555555555556,-0.24067796610169492
2.0583333333333336,-0.2440677966101695
2.0611111111111113,-0.2271186440677966
2.063888888888889,-0.2033898305084746
2.066666666666667,-0.2033898305084746
2.0694444444444446,-0.2305084745762712
2.0722222222222224,-0.25084745762711863
2.075,-0.2440677966101695
2.077777777777778,-0.22033898305084745
2.0805555555555557,-0.21694915254237288
2.0833333333333335,-0.23389830508474577
2.0861111111111112,-0.2305084745762712
2.088888888888889,-0.2135593220338983
2.091666666666667,-0.2135593220338983
2.0944444444444446,-0.20677966101694914
2.0972222222222223,-0.2033898305084746
2.1,-0.19322033898305085
2.102777777777778,-0.19661016949152543
2.1055555555555556,-0.2033898305084746
2.1083333333333334,-0.2135593220338983
2.111111111111111,-0.20677966101694914
2.113888888888889,-0.2033898305084746
2.1166666666666667,-0.21016949152542372
2.1194444444444445,-0.2271186440677966
2.1222222222222222,-0.23389830508474577
2.125,-0.2305084745762712
2.1277777777777778,-0.22372881355932203
2.1305555555555555,-0.21694915254237288
2.1333333333333333,-0.19661016949152543
2.136111111111111,-0.18983050847457628
2.138888888888889,-0.21016949152542372
2.1416666666666666,-0.25084745762711863
2.1444444444444444,-0.2542372881355932
2.147222222222222,-0.2271186440677966
2.15,-0.21694915254237288
2.1527777777777777,-0.23728813559322035
2.1555555555555554,-0.26440677966101694
2.158333333333333,-0.2711864406779661
2.161111111111111,-0.25084745762711863
2.1638888888888888,-0.24745762711864408
2.166666666666667,-0.24745762711864408
2.1694444444444447,-0.23728813559322035
2.1722222222222225,-0.23389830508474577
2.1750000000000003,-0.24745762711864408
2.177777777777778,-0.25084745762711863
2.180555555555556,-0.2440677966101695
2.1833333333333336,-0.24067796610169492
2.1861111111111113,-0.24067796610169492
2.188888888888889,-0.2440677966101695
2.191666666666667,-0.24745762711864408
2.1944444444444446,-0.25084745762711863
2.1972222222222224,-0.2440677966101695
2.2,-0.24067796610169492
2.202777777777778,-0.2440677966101695
2.2055555555555557,-0.2542372881355932
2.2083333333333335,-0.24745762711864408
2.2111111111111112,-0.2305084745762712
2.213888888888889,-0.21694915254237288
2.216666666666667,-0.23389830508474577
2.2194444444444446,-0.26440677966101694
2.2222222222222223,-0.2847457627118644
2.225,-0.29152542372881357
2.227777777777778,-0.2711864406779661
2.2305555555555556,-0.25084745762711863
2.2333333333333334,-0.2576271186440678
2.236111111111111,-0.2745762711864407
2.238888888888889,-0.2745762711864407
2.2416666666666667,-0.26440677966101694
2.2444444444444445,-0.2542372881355932
2.2472222222222222,-0.2440677966101695
2.25,-0.24067796610169492
2.2527777777777778,-0.2576271186440678
2.2555555555555555,-0.2677966101694915
2.2583333333333333,-0.2542372881355932
2.261111111111111,-0.23389830508474577
2.263888888888889,-0.24067796610169492
2.2666666666666666,-0.26440677966101694
2.2694444444444444,-0.26440677966101694
2.272222222222222,-0.26101694915254237
2.275,-0.2677966101694915
2.2777777777777777,-0.2745762711864407
2.2805555555555554,-0.27796610169491526
2.283333333333333,-0.28135593220338984
2.286111111111111,-0.28135593220338984
2.288888888888889,-0.2711864406779661
2.291666666666667,-0.26440677966101694
2.2944444444444447,-0.26101694915254237
2.2972222222222225,-0.2576271186440678
2.3000000000000003,-0.2542372881355932
2.302777777777778,-0.26440677966101694
2.305555555555556,-0.2677966101694915
2.3083333333333336,-0.2711864406779661
2.3111111111111113,-0.2745762711864407
2.313888888888889,-0.26440677966101694
2.316666666666667,-0.2542372881355932
2.3194444444444446,-0.25084745762711863
2.3222222222222224,-0.25084745762711863
2.325,-0.26101694915254237
2.327777777777778,-0.24745762711864408
2.3305555555555557,-0.23389830508474577
2.3333333333333335,-0.24067796610169492
2.3361111111111112,-0.2677966101694915
2.338888888888889,-0.27796610169491526
2.341666666666667,-0.26440677966101694
2.3444444444444446,-0.2677966101694915
2.3472222222222223,-0.26101694915254237
2.35,-0.24067796610169492
2.352777777777778,-0.23728813559322035
2.3555555555555556,-0.2440677966101695
2.3583333333333334,-0.23728813559322035
2.361111111111111,-0.22372881355932203
2.363888888888889,-0.21016949152542372
2.3666666666666667,-0.20677966101694914
2.3694444444444445,-0.2135593220338983
2.3722222222222222,-0.20677966101694914
2.375,-0.17966101694915254
2.3777777777777778,-0.14915254237288136
2.3805555555555555,-0.13898305084745763
2.3833333333333333,-0.14576271186440679
2.386111111111111,-0.15593220338983052
2.388888888888889,-0.15932203389830507
2.3916666666666666,-0.13220338983050847
2.3944444444444444,-0.07457627118644068
2.397222222222222,-0.05423728813559322
2.4,-0.07457627118644068
2.4027777777777777,-0.1016949152542373
2.4055555555555554,-0.1152542372881356
2.408333333333333,-0.11864406779661017
2.411111111111111,-0.10508474576271186
2.413888888888889,-0.09152542372881356
2.416666666666667,-0.08135593220338982
2.4194444444444447,-0.08813559322033898
2.4222222222222225,-0.10508474576271186
2.4250000000000003,-0.13559322033898305
2.427777777777778,-0.15932203389830507
2.430555555555556,-0.15593220338983052
2.4333333333333336,-0.12542372881355932
2.4361111111111113,-0.11864406779661017
2.438888888888889,-0.14576271186440679
2.441666666666667,-0.17288135593220338
2.4444444444444446,-0.18983050847457628
2.4472222222222224,-0.19322033898305085
2.45,-0.2033898305084746
2.452777777777778,-0.24067796610169492
2.4555555555555557,-0.27796610169491526
2.4583333333333335,-0.29152542372881357
2.4611111111111112,-0.2847457627118644
2.463888888888889,-0.28135593220338984
2.466666666666667,-0.29152542372881357
2.4694444444444446,-0.3050847457627119
2.4722222222222223,-0.3152542372881356
2.475,-0.3254237288135593
2.477777777777778,-0.3220338983050847
2.4805555555555556,-0.31864406779661014
2.4833333333333334,-0.31186440677966104
2.486111111111111,-0.3050847457627119
2.488888888888889,-0.3220338983050847
2.4916666666666667,-0.3288135593220339
2.4944444444444445,-0.3050847457627119
2.4972222222222222,-0.2847457627118644
2.5,-0.28135593220338984
2.5027777777777778,-0.2983050847457627
2.5055555555555555,-0.31864406779661014
2.5083333333333333,-0.3423728813559322
2.511111111111111,-0.3593220338983051
2.513888888888889,-0.376271186440678
2.5166666666666666,-0.3593220338983051
2.5194444444444444,-0.31186440677966104
2.522222222222222,-0.2542372881355932
2.525,-0.2
2.5277777777777777,-0.10847457627118644
2.5305555555555554,0.06440677966101695
2.533333333333333,0.3152542372881356
2.5361111111111114,0.6372881355932203
2.538888888888889,1.071186440677966
2.541666666666667,1.6576271186440679
2.5444444444444447,2.3322033898305086
2.5472222222222225,2.9322033898305087
2.5500000000000003,3.2508474576271187
2.552777777777778,3.1728813559322036
2.555555555555556,2.833898305084746
2.5583333333333336,2.4135593220338984
2.5611111111111113,1.8915254237288135
2.563888888888889,1.1491525423728814
2.566666666666667,0.3016949152542373
2.5694444444444446,-0.33559322033898303
2.5722222222222224,-0.6644067796610169
2.575,-0.7457627118644068
2.577777777777778,-0.6372881355932203
2.5805555555555557,-0.4915254237288136
2.5833333333333335,-0.4101694915254237
2.5861111111111112,-0.4033898305084746
2.588888888888889,-0.42033898305084744
2.591666666666667,-0.4135593220338983
2.5944444444444446,-0.39322033898305087
2.5972222222222223,-0.36610169491525424
2.6,-0.34915254237288135
2.602777777777778,-0.3389830508474576
2.6055555555555556,-0.3525423728813559
2.6083333333333334,-0.3559322033898305
2.611111111111111,-0.33559322033898303
2.613888888888889,-0.3050847457627119
2.6166666666666667,-0.30847457627118646
2.6194444444444445,-0.3288135593220339
2.6222222222222222,-0.33220338983050846
2.625,-0.30847457627118646
2.6277777777777778,-0.2847457627118644
2.6305555555555555,-0.27796610169491526
2.6333333333333333,-0.28135593220338984
2.636111111111111,-0.288135593220339
2.638888888888889,-0.30847457627118646
2.6416666666666666,-0.3220338983050847
2.6444444444444444,-0.34915254237288135
2.647222222222222,-0.34915254237288135
2.65,-0.3389830508474576
2.6527777777777777,-0.3254237288135593
2.6555555555555554,-0.31864406779661014
2.658333333333333,-0.3152542372881356
2.6611111111111114,-0.3016949152542373
2.663888888888889,-0.29491525423728815
2.666666666666667,-0.3050847457627119
2.6694444444444447,-0.2983050847457627
2.6722222222222225,-0.2983050847457627
2.6750000000000003,-0.3050847457627119
2.677777777777778,-0.2983050847457627
2.680555555555556,-0.29491525423728815
2.6833333333333336,-0.30847457627118646
2.6861111111111113,-0.2983050847457627
2.688888888888889,-0.2847457627118644
2.691666666666667,-0.2847457627118644
2.6944444444444446,-0.2745762711864407
2.6972222222222224,-0.25084745762711863
2.7,-0.25084745762711863
2.702777777777778,-0.26101694915254237
2.7055555555555557,-0.2576271186440678
2.7083333333333335,-0.25084745762711863
2.7111111111111112,-0.24745762711864408
2.713888888888889,-0.25084745762711863
2.716666666666667,-0.24745762711864408
2.7194444444444446,-0.26101694915254237
2.7222222222222223,-0.2711864406779661
2.725,-0.25084745762711863
2.727777777777778,-0.2135593220338983
2.7305555555555556,-0.19661016949152543
2.7333333333333334,-0.2033898305084746
2.736111111111111,-0.20677966101694914
2.738888888888889,-0.2
2.7416666666666667,-0.17966101694915254
2.7444444444444445,-0.15254237288135594
2.7472222222222222,-0.15254237288135594
2.75,-0.15254237288135594
2.7527777777777778,-0.14915254237288136
2.7555555555555555,-0.13898305084745763
2.7583333333333333,-0.14915254237288136
2.761111111111111,-0.16271186440677965
2.763888888888889,-0.15593220338983052
2.7666666666666666,-0.1288135593220339
2.7694444444444444,-0.09152542372881356
2.772222222222222,-0.0711864406779661
2.775,-0.05084745762711865
2.7777777777777777,-0.02711864406779661
2.7805555555555554,0.003389830508474576
2.7833333333333337,0.020338983050847456
2.7861111111111114,0.023728813559322035
2.788888888888889,0.05084745762711865
2.791666666666667,0.0847457627118644
2.7944444444444447,0.12203389830508475
2.7972222222222225,0.13559322033898305
2.8000000000000003,0.15254237288135594
2.802777777777778,0.18305084745762712
2.805555555555556,0.22033898305084745
2.8083333333333336,0.24745762711864408
2.8111111111111113,0.2745762711864407
2.813888888888889,0.3016949152542373
2.816666666666667,0.33220338983050846
2.8194444444444446,0.3559322033898305
2.8222222222222224,0.37966101694915255
2.825,0.4067796610169492
2.827777777777778,0.423728813559322
2.8305555555555557,0.4542372881355932
2.8333333333333335,0.46440677966101696
2.8361111111111112,0.46440677966101696
2.838888888888889,0.4711864406779661
2.841666666666667,0.4915254237288136
2.8444444444444446,0.5050847457627119
2.8472222222222223,0.5050847457627119
2.85,0.49830508474576274
2.852777777777778,0.49830508474576274
2.8555555555555556,0.49830508474576274
2.8583333333333334,0.49491525423728816
2.861111111111111,0.511864406779661
2.863888888888889,0.5220338983050847
2.8666666666666667,0.5084745762711864
2.8694444444444445,0.488135593220339
2.8722222222222222,0.4745762711864407
2.875,0.46779661016949153
2.8777777777777778,0.4610169491525424
2.8805555555555555,0.45084745762711864
2.8833333333333333,0.423728813559322
2.886111111111111,0.3593220338983051
2.888888888888889,0.31186440677966104
2.8916666666666666,0.29491525423728815
2.8944444444444444,0.288135593220339
2.897222222222222,0.26440677966101694
2.9,0.22372881355932203
2.9027777777777777,0.1694915254237288
2.9055555555555554,0.09830508474576272
2.9083333333333337,0.0576271186440678
2.9111111111111114,0.04745762711864407
2.913888888888889,0.030508474576271188
2.916666666666667,0.0
2.9194444444444447,-0.03728813559322034
2.9222222222222225,-0.0711864406779661
2.9250000000000003,-0.09830508474576272
2.927777777777778,-0.11864406779661017
2.930555555555556,-0.13220338983050847
2.9333333333333336,-0.14576271186440679
2.9361111111111113,-0.16610169491525423
2.938888888888889,-0.1864406779661017
2.941666666666667,-0.2
2.9444444444444446,-0.2
2.9472222222222224,-0.22033898305084745
2.95,-0.2305084745762712
2.952777777777778,-0.22033898305084745
2.9555555555555557,-0.22372881355932203
2.9583333333333335,-0.23728813559322035
2.9611111111111112,-0.24067796610169492
2.963888888888889,-0.2271186440677966
2.966666666666667,-0.23728813559322035
2.9694444444444446,-0.25084745762711863
2.9722222222222223,-0.2576271186440678
2.975,-0.26440677966101694
2.977777777777778,-0.27796610169491526
2.9805555555555556,-0.2711864406779661
2.9833333333333334,-0.2576271186440678
2.986111111111111,-0.2745762711864407
2.988888888888889,-0.29491525423728815
2.9916666666666667,-0.288135593220339
2.9944444444444445,-0.27796610169491526
2.9972222222222222,-0.27796610169491526
3.0,-0.27796610169491526
3.0027777777777778,-0.28135593220338984
3.0055555555555555,-0.29491525423728815
3.0083333333333333,-0.3016949152542373
3.011111111111111,-0.2847457627118644
3.013888888888889,-0.288135593220339
3.0166666666666666,-0.3016949152542373
3.0194444444444444,-0.31186440677966104
3.022222222222222,-0.30847457627118646
3.025,-0.3016949152542373
3.0277777777777777,-0.29152542372881357
3.030555555555556,-0.2983050847457627
3.0333333333333337,-0.31864406779661014
3.0361111111111114,-0.31864406779661014
3.038888888888889,-0.31186440677966104
3.041666666666667,-0.3152542372881356
3.0444444444444447,-0.3220338983050847
3.0472222222222225,-0.3288135593220339
3.0500000000000003,-0.3254237288135593
3.052777777777778,-0.3254237288135593
3.055555555555556,-0.3220338983050847
3.0583333333333336,-0.3254237288135593
3.0611111111111113,-0.3254237288135593
3.063888888888889,-0.31864406779661014
3.066666666666667,-0.31186440677966104
3.0694444444444446,-0.3152542372881356
3.0722222222222224,-0.3050847457627119
3.075,-0.29491525423728815
3.077777777777778,-0.30847457627118646
3.0805555555555557,-0.3050847457627119
3.0833333333333335,-0.28135593220338984
3.0861111111111112,-0.26440677966101694
3.088888888888889,-0.26101694915254237
3.091666666666667,-0.2576271186440678
3.0944444444444446,-0.25084745762711863
3.0972222222222223,-0.2677966101694915
3.1,-0.27796610169491526
3.102777777777778,-0.26440677966101694
3.1055555555555556,-0.2576271186440678
3.1083333333333334,-0.2677966101694915
3.111111111111111,-0.26440677966101694
3.113888888888889,-0.24745762711864408
3.1166666666666667,-0.23389830508474577
3.1194444444444445,-0.24067796610169492
3.1222222222222222,-0.23728813559322035
3.125,-0.2271186440677966
3.1277777777777778,-0.22372881355932203
3.1305555555555555,-0.2135593220338983
3.1333333333333333,-0.21694915254237288
3.136111111111111,-0.2271186440677966
3.138888888888889,-0.23389830508474577
3.1416666666666666,-0.2271186440677966
3.1444444444444444,-0.2135593220338983
3.147222222222222,-0.18983050847457628
3.15,-0.17966101694915254
3.1527777777777777,-0.19322033898305085
3.155555555555556,-0.21694915254237288
3.1583333333333337,-0.2576271186440678
3.1611111111111114,-0.2711864406779661
3.163888888888889,-0.25084745762711863
3.166666666666667,-0.22372881355932203
3.1694444444444447,-0.2135593220338983
3.1722222222222225,-0.23728813559322035
3.1750000000000003,-0.2576271186440678
3.177777777777778,-0.2576271186440678
3.180555555555556,-0.23728813559322035
3.1833333333333336,-0.23389830508474577
3.1861111111111113,-0.25084745762711863
3.188888888888889,-0.26101694915254237
3.191666666666667,-0.25084745762711863
3.1944444444444446,-0.2440677966101695
3.1972222222222224,-0.2440677966101695
3.2,-0.23728813559322035
3.202777777777778,-0.2305084745762712
3.2055555555555557,-0.24067796610169492
3.2083333333333335,-0.2542372881355932
3.2111111111111112,-0.24067796610169492
3.213888888888889,-0.24067796610169492
3.216666666666667,-0.24745762711864408
3.2194444444444446,-0.26101694915254237
3.2222222222222223,-0.2711864406779661
3.225,-0.27796610169491526
3.227777777777778,-0.26440677966101694
3.2305555555555556,-0.2440677966101695
3.2333333333333334,-0.23728813559322035
3.236111111111111,-0.2542372881355932
3.238888888888889,-0.2677966101694915
3.2416666666666667,-0.26440677966101694
3.2444444444444445,-0.2677966101694915
3.2472222222222222,-0.26101694915254237
3.25,-0.2576271186440678
3.2527777777777778,-0.26101694915254237
3.2555555555555555,-0.2711864406779661
3.2583333333333333,-0.2711864406779661
3.261111111111111,-0.26101694915254237
3.263888888888889,-0.2576271186440678
3.2666666666666666,-0.26440677966101694
3.2694444444444444,-0.2576271186440678
3.272222222222222,-0.26101694915254237
3.275,-0.26101694915254237
3.277777777777778,-0.26101694915254237
3.280555555555556,-0.2576271186440678
3.2833333333333337,-0.25084745762711863
3.2861111111111114,-0.2576271186440678
3.288888888888889,-0.2677966101694915
3.291666666666667,-0.26440677966101694
3.2944444444444447,-0.24745762711864408
3.2972222222222225,-0.24745762711864408
3.3000000000000003,-0.2576271186440678
3.302777777777778,-0.27796610169491526
3.305555555555556,-0.288135593220339
3.3083333333333336,-0.28135593220338984
3.3111111111111113,-0.2711864406779661
3.313888888888889,-0.2745762711864407
3.316666666666667,-0.2576271186440678
3.3194444444444446,-0.2576271186440678
3.3222222222222224,-0.2711864406779661
3.325,-0.28135593220338984
3.327777777777778,-0.2745762711864407
3.3305555555555557,-0.2576271186440678
3.3333333333333335,-0.26101694915254237
3.3361111111111112,-0.2711864406779661
3.338888888888889,-0.27796610169491526
3.341666666666667,-0.2711864406779661
3.3444444444444446,-0.25084745762711863
3.3472222222222223,-0.2440677966101695
3.35,-0.2542372881355932
3.352777777777778,-0.2677966101694915
3.3555555555555556,-0.2677966101694915
3.3583333333333334,-0.26101694915254237
3.361111111111111,-0.2576271186440678
3.363888888888889,-0.26101694915254237
3.3666666666666667,-0.2440677966101695
3.3694444444444445,-0.2440677966101695
3.3722222222222222,-0.23389830508474577
3.375,-0.21694915254237288
3.3777777777777778,-0.19322033898305085
3.3805555555555555,-0.17627118644067796
3.3833333333333333,-0.18305084745762712
3.386111111111111,-0.19661016949152543
3.388888888888889,-0.17966101694915254
3.3916666666666666,-0.15593220338983052
3.3944444444444444,-0.15254237288135594
3.397222222222222,-0.15593220338983052
3.4,-0.15932203389830507
3.402777777777778,-0.15254237288135594
3.405555555555556,-0.12542372881355932
3.4083333333333337,-0.09830508474576272
3.4111111111111114,-0.08135593220338982
3.413888888888889,-0.07796610169491526
3.416666666666667,-0.07796610169491526
3.4194444444444447,-0.09491525423728814
3.4222222222222225,-0.10847457627118644
3.4250000000000003,-0.1016949152542373
3.427777777777778,-0.0847457627118644
3.430555555555556,-0.05423728813559322
3.4333333333333336,-0.0576271186440678
3.4361111111111113,-0.09830508474576272
3.438888888888889,-0.1694915254237288
3.441666666666667,-0.2
3.4444444444444446,-0.18305084745762712
3.4472222222222224,-0.1694915254237288
3.45,-0.17288135593220338
3.452777777777778,-0.18983050847457628
3.4555555555555557,-0.20677966101694914
3.4583333333333335,-0.22033898305084745
3.4611111111111112,-0.2305084745762712
3.463888888888889,-0.2440677966101695
3.466666666666667,-0.26101694915254237
3.4694444444444446,-0.2847457627118644
3.4722222222222223,-0.3050847457627119
3.475,-0.3016949152542373
3.477777777777778,-0.29491525423728815
3.4805555555555556,-0.3016949152542373
3.4833333333333334,-0.30847457627118646
3.486111111111111,-0.3220338983050847
3.488888888888889,-0.33220338983050846
3.4916666666666667,-0.3254237288135593
3.4944444444444445,-0.3152542372881356
3.4972222222222222,-0.31864406779661014
3.5,-0.33220338983050846
3.5027777777777778,-0.33559322033898303
3.5055555555555555,-0.3254237288135593
3.5083333333333333,-0.3152542372881356
3.511111111111111,-0.3050847457627119
3.513888888888889,-0.3152542372881356
3.5166666666666666,-0.31864406779661014
3.5194444444444444,-0.3220338983050847
3.522222222222222,-0.3254237288135593
3.5250000000000004,-0.33220338983050846
3.527777777777778,-0.34576271186440677
3.530555555555556,-0.3525423728813559
3.5333333333333337,-0.33559322033898303
3.5361111111111114,-0.28135593220338984
3.538888888888889,-0.21016949152542372
3.541666666666667,-0.09491525423728814
3.5444444444444447,0.07796610169491526
3.5472222222222225,0.3050847457627119
3.5500000000000003,0.6169491525423729
3.552777777777778,1.0508474576271187
3.555555555555556,1.6372881355932203
3.5583333333333336,2.3220338983050848
3.5611111111111113,2.9389830508474577
3.563888888888889,3.2610169491525425
3.566666666666667,3.176271186440678
3.5694444444444446,2.840677966101695
3.5722222222222224,2.4033898305084747
3.575,1.8677966101694916
3.577777777777778,1.1220338983050848
3.5805555555555557,0.2745762711864407
3.5833333333333335,-0.36271186440677966
3.5861111111111112,-0.6949152542372882
3.588888888888889,-0.7627118644067796
3.591666666666667,-0.6440677966101694
3.5944444444444446,-0.4915254237288136
3.5972222222222223,-0.4033898305084746
3.6,-0.3864406779661017
3.602777777777778,-0.4033898305084746
3.6055555555555556,-0.41694915254237286
3.6083333333333334,-0.4135593220338983
3.611111111111111,-0.3898305084745763
3.613888888888889,-0.3593220338983051
3.6166666666666667,-0.3389830508474576
3.6194444444444445,-0.34576271186440677
3.6222222222222222,-0.3593220338983051
3.625,-0.34915254237288135
3.6277777777777778,-0.33559322033898303
3.6305555555555555,-0.31864406779661014
3.6333333333333333,-0.3288135593220339
3.636111111111111,-0.3389830508474576
3.638888888888889,-0.3389830508474576
3.6416666666666666,-0.34576271186440677
3.6444444444444444,-0.34915254237288135
3.647222222222222,-0.31864406779661014
3.6500000000000004,-0.31186440677966104
3.652777777777778,-0.31864406779661014
3.655555555555556,-0.3254237288135593
3.6583333333333337,-0.3389830508474576
3.6611111111111114,-0.3220338983050847
3.663888888888889,-0.30847457627118646
3.666666666666667,-0.3050847457627119
3.6694444444444447,-0.3152542372881356
3.6722222222222225,-0.31864406779661014
3.6750000000000003,-0.3254237288135593
3.677777777777778,-0.31186440677966104
3.680555555555556,-0.30847457627118646
3.6833333333333336,-0.31186440677966104
3.6861111111111113,-0.3050847457627119
3.688888888888889,-0.3050847457627119
3.691666666666667,-0.31186440677966104
3.6944444444444446,-0.3050847457627119
3.6972222222222224,-0.288135593220339
3.7,-0.28135593220338984
3.702777777777778,-0.28135593220338984
3.7055555555555557,-0.27796610169491526
3.7083333333333335,-0.2847457627118644
3.7111111111111112,-0.2847457627118644
3.713888888888889,-0.2677966101694915
3.716666666666667,-0.26101694915254237
3.7194444444444446,-0.28135593220338984
3.7222222222222223,-0.28135593220338984
3.725,-0.2745762711864407
3.727777777777778,-0.2711864406779661
3.7305555555555556,-0.2542372881355932
3.7333333333333334,-0.24067796610169492
3.736111111111111,-0.24745762711864408
3.738888888888889,-0.26440677966101694
3.7416666666666667,-0.26101694915254237
3.7444444444444445,-0.2305084745762712
3.7472222222222222,-0.22372881355932203
3.75,-0.2305084745762712
3.7527777777777778,-0.22372881355932203
3.7555555555555555,-0.2033898305084746
3.7583333333333333,-0.2
3.761111111111111,-0.19661016949152543
3.763888888888889,-0.17966101694915254
3.7666666666666666,-0.15932203389830507
3.7694444444444444,-0.15254237288135594
3.7722222222222226,-0.15593220338983052
3.7750000000000004,-0.15254237288135594
3.777777777777778,-0.12542372881355932
3.780555555555556,-0.09491525423728814
3.7833333333333337,-0.0711864406779661
3.7861111111111114,-0.05084745762711865
3.788888888888889,-0.03389830508474576
3.791666666666667,-0.020338983050847456
3.7944444444444447,-0.006779661016949152
3.7972222222222225,0.003389830508474576
3.8000000000000003,0.020338983050847456
3.802777777777778,0.030508474576271188
3.805555555555556,0.05084745762711865
3.8083333333333336,0.08813559322033898
3.8111111111111113,0.11864406779661017
3.813888888888889,0.14915254237288136
3.816666666666667,0.19322033898305085
3.8194444444444446,0.22372881355932203
3.8222222222222224,0.24067796610169492
3.825,0.2745762711864407
3.827777777777778,0.31864406779661014
3.8305555555555557,0.3389830508474576
3.8333333333333335,0.36271186440677966
3.8361111111111112,0.38305084745762713
3.838888888888889,0.3898305084745763
3.841666666666667,0.4101694915254237
3.8444444444444446,0.43050847457627117
3.8472222222222223,0.44745762711864406
3.85,0.46779661016949153
3.852777777777778,0.4847457627118644
3.8555555555555556,0.5016949152542373
3.8583333333333334,0.5050847457627119
3.861111111111111,0.5152542372881356
3.863888888888889,0.5220338983050847
3.8666666666666667,0.535593220338983
3.8694444444444445,0.5254237288135594
3.8722222222222222,0.5152542372881356
3.875,0.5220338983050847
3.8777777777777778,0.5254237288135594
3.8805555555555555,0.5152542372881356
3.8833333333333333,0.5050847457627119
3.886111111111111,0.47796610169491527
3.888888888888889,0.4406779661016949
3.8916666666666666,0.43050847457627117
3.8944444444444444,0.43050847457627117
3.8972222222222226,0.41694915254237286
3.9000000000000004,0.3864406779661017
3.902777777777778,0.3525423728813559
3.905555555555556,0.30847457627118646
3.9083333333333337,0.2677966101694915
3.9111111111111114,0.24067796610169492
3.913888888888889,0.21016949152542372
3.916666666666667,0.17288135593220338
3.9194444444444447,0.13898305084745763
3.9222222222222225,0.10508474576271186
3.9250000000000003,0.07457627118644068
3.927777777777778,0.05084745762711865
3.930555555555556,0.03728813559322034
3.9333333333333336,0.003389830508474576
3.9361111111111113,-0.03389830508474576
3.938888888888889,-0.08135593220338982
3.941666666666667,-0.10508474576271186
3.9444444444444446,-0.11864406779661017
3.9472222222222224,-0.12542372881355932
3.95,-0.14915254237288136
3.952777777777778,-0.17966101694915254
3.9555555555555557,-0.18983050847457628
3.9583333333333335,-0.18983050847457628
3.9611111111111112,-0.1864406779661017
3.963888888888889,-0.19661016949152543
3.966666666666667,-0.22372881355932203
3.9694444444444446,-0.2440677966101695
3.9722222222222223,-0.2542372881355932
3.975,-0.24745762711864408
3.977777777777778,-0.24067796610169492
3.9805555555555556,-0.23728813559322035
3.9833333333333334,-0.23728813559322035
3.986111111111111,-0.24067796610169492
3.988888888888889,-0.2711864406779661
3.9916666666666667,-0.2847457627118644
3.9944444444444445,-0.27796610169491526
3.9972222222222222,-0.2711864406779661
4.0,-0.2745762711864407
4.002777777777778,-0.2847457627118644
4.0055555555555555,-0.288135593220339
4.008333333333334,-0.29491525423728815
4.011111111111111,-0.288135593220339
4.013888888888889,-0.29152542372881357
4.016666666666667,-0.29152542372881357
4.019444444444445,-0.2983050847457627
4.022222222222222,-0.3152542372881356
4.025,-0.3152542372881356
4.027777777777778,-0.2983050847457627
4.030555555555556,-0.3050847457627119
4.033333333333333,-0.30847457627118646
4.036111111111111,-0.3220338983050847
4.038888888888889,-0.31864406779661014
4.041666666666667,-0.31186440677966104
4.044444444444444,-0.3152542372881356
4.0472222222222225,-0.3152542372881356
4.05,-0.3050847457627119
4.052777777777778,-0.30847457627118646
4.055555555555555,-0.3254237288135593
4.058333333333334,-0.33220338983050846
4.061111111111111,-0.3220338983050847
4.063888888888889,-0.3016949152542373
4.066666666666666,-0.288135593220339
4.069444444444445,-0.3050847457627119
4.072222222222222,-0.3288135593220339
4.075,-0.3254237288135593
4.0777777777777775,-0.30847457627118646
4.080555555555556,-0.2983050847457627
4.083333333333334,-0.288135593220339
4.086111111111111,-0.28135593220338984
4.0888888888888895,-0.2711864406779661
4.091666666666667,-0.2711864406779661
4.094444444444445,-0.26101694915254237
4.097222222222222,-0.26440677966101694
4.1000000000000005,-0.2711864406779661
4.102777777777778,-0.29152542372881357
4.105555555555556,-0.3016949152542373
4.108333333333333,-0.3016949152542373
4.111111111111112,-0.28135593220338984
4.113888888888889,-0.26440677966101694
4.116666666666667,-0.2576271186440678
4.1194444444444445,-0.2576271186440678
4.122222222222223,-0.2576271186440678
4.125,-0.26440677966101694
4.127777777777778,-0.26440677966101694
4.1305555555555555,-0.25084745762711863
4.133333333333334,-0.2440677966101695
4.136111111111111,-0.2542372881355932
4.138888888888889,-0.26440677966101694
4.141666666666667,-0.2576271186440678
4.144444444444445,-0.23728813559322035
4.147222222222222,-0.2271186440677966
4.15,-0.2271186440677966
4.152777777777778,-0.23389830508474577
4.155555555555556,-0.23389830508474577
4.158333333333333,-0.2271186440677966
4.161111111111111,-0.21694915254237288
4.163888888888889,-0.21694915254237288
4.166666666666667,-0.23389830508474577
4.169444444444444,-0.2440677966101695
4.1722222222222225,-0.2440677966101695
4.175,-0.2271186440677966
4.177777777777778,-0.2135593220338983
4.180555555555555,-0.21694915254237288
4.183333333333334,-0.2271186440677966
4.186111111111111,-0.23389830508474577
4.188888888888889,-0.2440677966101695
4.191666666666666,-0.2576271186440678
4.194444444444445,-0.2542372881355932
4.197222222222222,-0.25084745762711863
4.2,-0.25084745762711863
4.2027777777777775,-0.24745762711864408
4.205555555555556,-0.2576271186440678
4.208333333333334,-0.2711864406779661
4.211111111111111,-0.2677966101694915
4.2138888888888895,-0.25084745762711863
4.216666666666667,-0.24067796610169492
4.219444444444445,-0.25084745762711863
4.222222222222222,-0.2576271186440678
4.2250000000000005,-0.24745762711864408
4.227777777777778,-0.2440677966101695
4.230555555555556,-0.24745762711864408
4.233333333333333,-0.24745762711864408
4.236111111111112,-0.25084745762711863
4.238888888888889,-0.25084745762711863
4.241666666666667,-0.2440677966101695
4.2444444444444445,-0.24067796610169492
4.247222222222223,-0.24745762711864408
4.25,-0.2576271186440678
4.252777777777778,-0.26440677966101694
4.2555555555555555,-0.26440677966101694
4.258333333333334,-0.26440677966101694
4.261111111111111,-0.26101694915254237
4.263888888888889,-0.2745762711864407
4.266666666666667,-0.27796610169491526
4.269444444444445,-0.288135593220339
4.272222222222222,-0.28135593220338984
4.275,-0.25084745762711863
4.277777777777778,-0.23389830508474577
4.280555555555556,-0.23728813559322035
4.283333333333333,-0.2305084745762712
4.286111111111111,-0.2271186440677966
4.288888888888889,-0.23389830508474577
4.291666666666667,-0.23389830508474577
4.294444444444444,-0.24745762711864408
4.2972222222222225,-0.27796610169491526
4.3,-0.29152542372881357
4.302777777777778,-0.28135593220338984
4.305555555555555,-0.28135593220338984
4.308333333333334,-0.29152542372881357
4.311111111111111,-0.288135593220339
4.313888888888889,-0.26101694915254237
4.316666666666666,-0.26101694915254237
4.319444444444445,-0.26440677966101694
4.322222222222222,-0.2677966101694915
4.325,-0.2677966101694915
4.3277777777777775,-0.2711864406779661
4.330555555555556,-0.2677966101694915
4.333333333333334,-0.2576271186440678
4.336111111111111,-0.2745762711864407
4.3388888888888895,-0.288135593220339
4.341666666666667,-0.2745762711864407
4.344444444444445,-0.24745762711864408
4.347222222222222,-0.24067796610169492
4.3500000000000005,-0.2440677966101695
4.352777777777778,-0.25084745762711863
4.355555555555556,-0.24745762711864408
4.358333333333333,-0.25084745762711863
4.361111111111112,-0.2576271186440678
4.363888888888889,-0.2745762711864407
4.366666666666667,-0.29152542372881357
4.3694444444444445,-0.2983050847457627
4.372222222222223,-0.3016949152542373
4.375,-0.31186440677966104
4.377777777777778,-0.29152542372881357
4.3805555555555555,-0.2576271186440678
4.383333333333334,-0.25084745762711863
4.386111111111111,-0.2576271186440678
4.388888888888889,-0.2576271186440678
4.391666666666667,-0.2440677966101695
4.394444444444445,-0.2271186440677966
4.397222222222222,-0.22033898305084745
4.4,-0.23389830508474577
4.402777777777778,-0.24745762711864408
4.405555555555556,-0.2542372881355932
4.408333333333333,-0.25084745762711863
4.411111111111111,-0.26101694915254237
4.413888888888889,-0.27796610169491526
4.416666666666667,-0.28135593220338984
4.419444444444444,-0.2745762711864407
4.4222222222222225,-0.2711864406779661
4.425,-0.2711864406779661
4.427777777777778,-0.25084745762711863
4.430555555555555,-0.24067796610169492
4.433333333333334,-0.24067796610169492
4.436111111111111,-0.2440677966101695
4.438888888888889,-0.23389830508474577
4.441666666666666,-0.20677966101694914
4.444444444444445,-0.19661016949152543
4.447222222222222,-0.19661016949152543
4.45,-0.2
4.452777777777778,-0.18983050847457628
4.455555555555556,-0.17966101694915254
4.458333333333334,-0.17627118644067796
4.461111111111111,-0.16610169491525423
4.4638888888888895,-0.1423728813559322
4.466666666666667,-0.1016949152542373
4.469444444444445,-0.07457627118644068
4.472222222222222,-0.0711864406779661
4.4750000000000005,-0.06779661016949153
4.477777777777778,-0.06440677966101695
4.480555555555556,-0.06779661016949153
4.483333333333333,-0.06779661016949153
4.486111111111112,-0.07457627118644068
4.488888888888889,-0.0711864406779661
4.491666666666667,-0.0711864406779661
4.4944444444444445,-0.06779661016949153
4.497222222222223,-0.09152542372881356
4.5,-0.11864406779661017
4.502777777777778,-0.13220338983050847
4.5055555555555555,-0.13220338983050847
4.508333333333334,-0.1152542372881356
4.511111111111111,-0.09491525423728814
4.513888888888889,-0.1016949152542373
4.516666666666667,-0.1423728813559322
4.519444444444445,-0.1864406779661017
4.522222222222222,-0.2033898305084746
4.525,-0.2
4.527777777777778,-0.19661016949152543
4.530555555555556,-0.2135593220338983
4.533333333333333,-0.24067796610169492
4.536111111111111,-0.2576271186440678
4.538888888888889,-0.2847457627118644
4.541666666666667,-0.3050847457627119
4.544444444444444,-0.31186440677966104
4.5472222222222225,-0.31864406779661014
4.55,-0.31864406779661014
4.552777777777778,-0.3016949152542373
4.555555555555555,-0.2745762711864407
4.558333333333334,-0.26440677966101694
4.561111111111111,-0.2542372881355932
4.563888888888889,-0.2542372881355932
4.566666666666666,-0.288135593220339
4.569444444444445,-0.3288135593220339
4.572222222222222,-0.3423728813559322
4.575,-0.3288135593220339
4.577777777777778,-0.28135593220338984
4.580555555555556,-0.24745762711864408
4.583333333333334,-0.2542372881355932
4.586111111111111,-0.29491525423728815
4.5888888888888895,-0.31864406779661014
4.591666666666667,-0.33559322033898303
4.594444444444445,-0.31864406779661014
4.597222222222222,-0.2677966101694915
4.6000000000000005,-0.20677966101694914
4.602777777777778,-0.13220338983050847
4.605555555555556,0.0
4.608333333333333,0.21016949152542372
4.611111111111112,0.488135593220339
4.613888888888889,0.847457627118644
4.616666666666667,1.3593220338983052
4.6194444444444445,2.023728813559322
4.622222222222223,2.7152542372881356
4.625,3.230508474576271
4.627777777777778,3.3389830508474576
4.6305555555555555,3.0508474576271185
4.633333333333334,2.6
4.636111111111111,2.0915254237288137
4.638888888888889,1.4610169491525424
4.641666666666667,0.6610169491525424
4.644444444444445,-0.0576271186440678
4.647222222222222,-0.5254237288135594
4.65,-0.7559322033898305
4.652777777777778,-0.7830508474576271
4.655555555555556,-0.6508474576271186
4.658333333333333,-0.49830508474576274
4.661111111111111,-0.41694915254237286
4.663888888888889,-0.4135593220338983
4.666666666666667,-0.42033898305084744
4.669444444444444,-0.39661016949152544
4.6722222222222225,-0.34576271186440677
4.675,-0.31186440677966104
4.677777777777778,-0.3016949152542373
4.680555555555555,-0.31186440677966104
4.683333333333334,-0.31864406779661014
4.686111111111111,-0.33559322033898303
4.688888888888889,-0.34576271186440677
4.691666666666666,-0.3254237288135593
4.694444444444445,-0.3016949152542373
4.697222222222222,-0.288135593220339
4.7,-0.288135593220339
4.702777777777778,-0.3152542372881356
4.705555555555556,-0.3525423728813559
4.708333333333334,-0.3525423728813559
4.711111111111111,-0.31186440677966104
4.7138888888888895,-0.26440677966101694
4.716666666666667,-0.24745762711864408
4.719444444444445,-0.2576271186440678
4.722222222222222,-0.2847457627118644
4.7250000000000005,-0.29152542372881357
4.727777777777778,-0.2677966101694915
4.730555555555556,-0.24745762711864408
4.733333333333333,-0.26101694915254237
4.736111111111112,-0.2745762711864407
4.738888888888889,-0.27796610169491526
4.741666666666667,-0.27796610169491526
4.7444444444444445,-0.2711864406779661
4.747222222222223,-0.2711864406779661
4.75,-0.2745762711864407
4.752777777777778,-0.29152542372881357
4.7555555555555555,-0.28135593220338984
4.758333333333334,-0.2711864406779661
4.761111111111111,-0.28135593220338984
4.763888888888889,-0.26101694915254237
4.766666666666667,-0.21694915254237288
4.769444444444445,-0.20677966101694914
4.772222222222222,-0.24067796610169492
4.775,-0.26101694915254237
4.777777777777778,-0.24067796610169492
4.780555555555556,-0.23728813559322035
4.783333333333333,-0.24745762711864408
4.786111111111111,-0.24067796610169492
4.788888888888889,-0.2271186440677966
4.791666666666667,-0.21694915254237288
4.794444444444444,-0.2033898305084746
4.7972222222222225,-0.18305084745762712
4.8,-0.16271186440677965
4.802777777777778,-0.18305084745762712
4.805555555555555,-0.20677966101694914
4.808333333333334,-0.21016949152542372
4.811111111111111,-0.1864406779661017
4.813888888888889,-0.17627118644067796
4.816666666666666,-0.1694915254237288
4.819444444444445,-0.17966101694915254
4.822222222222222,-0.17966101694915254
4.825,-0.16271186440677965
4.827777777777778,-0.1423728813559322
4.830555555555556,-0.1288135593220339
4.833333333333334,-0.10847457627118644
4.836111111111111,-0.1016949152542373
4.8388888888888895,-0.0847457627118644
4.841666666666667,-0.06779661016949153
4.844444444444445,-0.05423728813559322
4.847222222222222,-0.04406779661016949
4.8500000000000005,-0.03389830508474576
4.852777777777778,-0.02711864406779661
4.855555555555556,-0.006779661016949152
4.858333333333333,0.013559322033898305
4.861111111111112,0.04406779661016949
4.863888888888889,0.06440677966101695
4.866666666666667,0.08135593220338982
4.8694444444444445,0.10847457627118644
4.872222222222223,0.14915254237288136
4.875,0.19661016949152543
4.877777777777778,0.2271186440677966
4.8805555555555555,0.25084745762711863
4.883333333333334,0.27796610169491526
4.886111111111111,0.31186440677966104
4.888888888888889,0.33220338983050846
4.891666666666667,0.3593220338983051
4.894444444444445,0.3864406779661017
4.897222222222222,0.4067796610169492
4.9,0.43728813559322033
4.902777777777778,0.46440677966101696
4.905555555555556,0.4745762711864407
4.908333333333333,0.488135593220339
4.911111111111111,0.5050847457627119
4.913888888888889,0.5152542372881356
4.916666666666667,0.5152542372881356
4.919444444444444,0.5084745762711864
4.9222222222222225,0.5186440677966102
4.925,0.5457627118644067
4.927777777777778,0.5627118644067797
4.930555555555555,0.5661016949152542
4.933333333333334,0.5627118644067797
4.936111111111111,0.5559322033898305
4.938888888888889,0.5559322033898305
4.941666666666666,0.559322033898305
4.944444444444445,0.5661016949152542
4.947222222222223,0.559322033898305
4.95,0.535593220338983
4.952777777777778,0.5186440677966102
4.955555555555556,0.511864406779661
4.958333333333334,0.49830508474576274
4.961111111111111,0.4745762711864407
4.9638888888888895,0.4440677966101695
4.966666666666667,0.38305084745762713
4.969444444444445,0.33220338983050846
4.972222222222222,0.30847457627118646
4.9750000000000005,0.28135593220338984
4.977777777777778,0.26440677966101694
4.980555555555556,0.23389830508474577
4.983333333333333,0.19322033898305085
4.986111111111112,0.15254237288135594
4.988888888888889,0.12542372881355932
4.991666666666667,0.09152542372881356
4.9944444444444445,0.0576271186440678
4.997222222222223,0.02711864406779661
5.0,-0.010169491525423728
5.002777777777778,-0.03389830508474576
5.0055555555555555,-0.05084745762711865
5.008333333333334,-0.08135593220338982
5.011111111111111,-0.1016949152542373
5.013888888888889,-0.12203389830508475
5.016666666666667,-0.13220338983050847
5.019444444444445,-0.14915254237288136
5.022222222222222,-0.16271186440677965
5.025,-0.1694915254237288
5.027777777777778,-0.17288135593220338
5.030555555555556,-0.18983050847457628
5.033333333333333,-0.2
5.036111111111111,-0.2033898305084746
5.038888888888889,-0.21694915254237288
5.041666666666667,-0.2305084745762712
5.044444444444444,-0.2271186440677966
5.0472222222222225,-0.22033898305084745
5.05,-0.23728813559322035
5.052777777777778,-0.25084745762711863
5.055555555555555,-0.26101694915254237
5.058333333333334,-0.2576271186440678
5.061111111111111,-0.2542372881355932
5.063888888888889,-0.26101694915254237
5.066666666666666,-0.2711864406779661
5.069444444444445,-0.2745762711864407
5.072222222222223,-0.28135593220338984
5.075,-0.2847457627118644
5.077777777777778,-0.2677966101694915
5.080555555555556,-0.2576271186440678
5.083333333333334,-0.2711864406779661
5.086111111111111,-0.29152542372881357
5.0888888888888895,-0.3016949152542373
5.091666666666667,-0.31186440677966104
5.094444444444445,-0.30847457627118646
5.097222222222222,-0.29491525423728815
5.1000000000000005,-0.3016949152542373
5.102777777777778,-0.31186440677966104
5.105555555555556,-0.31864406779661014
5.108333333333333,-0.31864406779661014
5.111111111111112,-0.2983050847457627
5.113888888888889,-0.288135593220339
5.116666666666667,-0.2847457627118644
5.1194444444444445,-0.3050847457627119
5.122222222222223,-0.3016949152542373
5.125,-0.3050847457627119
5.127777777777778,-0.2983050847457627
5.1305555555555555,-0.29491525423728815
5.133333333333334,-0.30847457627118646
5.136111111111111,-0.31864406779661014
5.138888888888889,-0.3050847457627119
5.141666666666667,-0.29152542372881357
5.144444444444445,-0.29152542372881357
5.147222222222222,-0.2745762711864407
5.15,-0.2677966101694915
5.152777777777778,-0.28135593220338984
5.155555555555556,-0.2711864406779661
5.158333333333333,-0.26440677966101694
5.161111111111111,-0.2576271186440678
5.163888888888889,-0.2576271186440678
5.166666666666667,-0.25084745762711863
5.169444444444444,-0.24745762711864408
5.1722222222222225,-0.25084745762711863
5.175,-0.2542372881355932
5.177777777777778,-0.24067796610169492
5.180555555555555,-0.22033898305084745
5.183333333333334,-0.2135593220338983
5.186111111111111,-0.21016949152542372
5.188888888888889,-0.18305084745762712
5.191666666666666,-0.1694915254237288
5.194444444444445,-0.18305084745762712
5.197222222222223,-0.19661016949152543
5.2,-0.18983050847457628
5.202777777777778,-0.2
5.205555555555556,-0.2033898305084746
5.208333333333334,-0.19661016949152543
5.211111111111111,-0.18305084745762712
5.2138888888888895,-0.18305084745762712
5.216666666666667,-0.18983050847457628
5.219444444444445,-0.2
5.222222222222222,-0.2135593220338983
5.2250000000000005,-0.2033898305084746
5.227777777777778,-0.18983050847457628
5.230555555555556,-0.1864406779661017
5.233333333333333,-0.2
5.236111111111112,-0.2135593220338983
5.238888888888889,-0.2135593220338983
5.241666666666667,-0.20677966101694914
5.2444444444444445,-0.20677966101694914
5.247222222222223,-0.20677966101694914
5.25,-0.20677966101694914
5.252777777777778,-0.2
5.2555555555555555,-0.19322033898305085
5.258333333333334,-0.21016949152542372
5.261111111111111,-0.21694915254237288
5.263888888888889,-0.21694915254237288
5.266666666666667,-0.20677966101694914
5.269444444444445,-0.2135593220338983
5.272222222222222,-0.21016949152542372
5.275,-0.2033898305084746
5.277777777777778,-0.2033898305084746
5.280555555555556,-0.2033898305084746
5.283333333333333,-0.20677966101694914
5.286111111111111,-0.20677966101694914
5.288888888888889,-0.22033898305084745
5.291666666666667,-0.2271186440677966
5.294444444444444,-0.2135593220338983
5.2972222222222225,-0.20677966101694914
5.3,-0.22372881355932203
5.302777777777778,-0.2305084745762712
5.305555555555555,-0.2305084745762712
5.308333333333334,-0.23389830508474577
5.311111111111111,-0.2271186440677966
5.313888888888889,-0.21694915254237288
5.316666666666666,-0.21694915254237288
5.319444444444445,-0.23389830508474577
5.322222222222223,-0.23728813559322035
5.325,-0.2271186440677966
5.327777777777778,-0.21694915254237288
5.330555555555556,-0.22372881355932203
5.333333333333334,-0.22372881355932203
5.336111111111111,-0.2305084745762712
5.3388888888888895,-0.23389830508474577
5.341666666666667,-0.2440677966101695
5.344444444444445,-0.24067796610169492
5.347222222222222,-0.2271186440677966
5.3500000000000005,-0.2135593220338983
5.352777777777778,-0.23389830508474577
5.355555555555556,-0.24745762711864408
5.358333333333333,-0.23389830508474577
5.361111111111112,-0.2271186440677966
5.363888888888889,-0.23728813559322035
5.366666666666667,-0.24067796610169492
5.3694444444444445,-0.24067796610169492
5.372222222222223,-0.23389830508474577
5.375,-0.2305084745762712
5.377777777777778,-0.22372881355932203
5.3805555555555555,-0.21694915254237288
5.383333333333334,-0.2305084745762712
5.386111111111111,-0.24745762711864408
5.388888888888889,-0.2440677966101695
5.391666666666667,-0.22372881355932203
5.394444444444445,-0.22033898305084745
5.397222222222222,-0.2271186440677966
5.4,-0.24067796610169492
5.402777777777778,-0.2542372881355932
5.405555555555556,-0.26101694915254237
5.408333333333333,-0.26101694915254237
5.411111111111111,-0.24745762711864408
5.413888888888889,-0.23728813559322035
5.416666666666667,-0.2440677966101695
5.419444444444444,-0.23728813559322035
5.4222222222222225,-0.22372881355932203
5.425,-0.21016949152542372
5.427777777777778,-0.20677966101694914
5.430555555555555,-0.2135593220338983
5.433333333333334,-0.21694915254237288
5.436111111111111,-0.2271186440677966
5.438888888888889,-0.2305084745762712
5.441666666666667,-0.2305084745762712
5.444444444444445,-0.22033898305084745
5.447222222222223,-0.2135593220338983
5.45,-0.23389830508474577
5.452777777777778,-0.2576271186440678
5.455555555555556,-0.2542372881355932
5.458333333333334,-0.2542372881355932
5.461111111111111,-0.25084745762711863
5.4638888888888895,-0.24745762711864408
5.466666666666667,-0.2305084745762712
5.469444444444445,-0.2305084745762712
5.472222222222222,-0.2440677966101695
5.4750000000000005,-0.2440677966101695
5.477777777777778,-0.22372881355932203
5.480555555555556,-0.22372881355932203
5.483333333333333,-0.2271186440677966
5.486111111111112,-0.22033898305084745
5.488888888888889,-0.2033898305084746
5.491666666666667,-0.18305084745762712
5.4944444444444445,-0.16271186440677965
5.497222222222223,-0.14576271186440679
5.5,-0.14576271186440679
5.502777777777778,-0.16271186440677965
5.5055555555555555,-0.16610169491525423
5.508333333333334,-0.16271186440677965
5.511111111111111,-0.1423728813559322
5.513888888888889,-0.13898305084745763
5.516666666666667,-0.13559322033898305
5.519444444444445,-0.1152542372881356
5.522222222222222,-0.0847457627118644
5.525,-0.06440677966101695
5.527777777777778,-0.04745762711864407
5.530555555555556,-0.04067796610169491
5.533333333333333,-0.04406779661016949
5.536111111111111,-0.05423728813559322
5.538888888888889,-0.0576271186440678
5.541666666666667,-0.05423728813559322
5.544444444444444,-0.05084745762711865
5.5472222222222225,-0.05084745762711865
5.55,-0.0576271186440678
5.552777777777778,-0.0847457627118644
5.555555555555555,-0.1152542372881356
5.558333333333334,-0.13220338983050847
5.561111111111111,-0.11186440677966102
5.563888888888889,-0.09152542372881356
5.566666666666667,-0.10847457627118644
5.569444444444445,-0.14576271186440679
5.572222222222223,-0.16610169491525423
5.575,-0.17627118644067796
5.577777777777778,-0.16610169491525423
5.580555555555556,-0.1694915254237288
5.583333333333334,-0.19661016949152543
5.586111111111111,-0.2305084745762712
5.5888888888888895,-0.2542372881355932
5.591666666666667,-0.2542372881355932
5.594444444444445,-0.23389830508474577
5.597222222222222,-0.24745762711864408
5.6000000000000005,-0.2847457627118644
5.602777777777778,-0.3050847457627119
5.605555555555556,-0.3050847457627119
5.608333333333333,-0.2983050847457627
5.611111111111112,-0.29491525423728815
5.613888888888889,-0.2983050847457627
5.616666666666667,-0.3016949152542373
5.6194444444444445,-0.288135593220339
5.622222222222223,-0.2711864406779661
5.625,-0.28135593220338984
5.627777777777778,-0.2711864406779661
5.6305555555555555,-0.2542372881355932
5.633333333333334,-0.2711864406779661
5.636111111111111,-0.29152542372881357
5.638888888888889,-0.2983050847457627
5.641666666666667,-0.3050847457627119
5.644444444444445,-0.3050847457627119
5.647222222222222,-0.27796610169491526
5.65,-0.2305084745762712
5.652777777777778,-0.17627118644067796
5.655555555555556,-0.09830508474576272
5.658333333333333,0.03728813559322034
5.661111111111111,0.26440677966101694
5.663888888888889,0.5932203389830508
5.666666666666667,0.9898305084745763
5.669444444444444,1.528813559322034
5.6722222222222225,2.1898305084745764
5.675,2.8610169491525426
5.677777777777778,3.3322033898305086
5.680555555555555,3.3966101694915256
5.683333333333334,3.0677966101694913
5.686111111111111,2.5796610169491525
5.688888888888889,2.006779661016949
5.691666666666667,1.2542372881355932
5.694444444444445,0.4
5.697222222222223,-0.26101694915254237
5.7,-0.6542372881355932
5.702777777777778,-0.8440677966101695
5.705555555555556,-0.8372881355932204
5.708333333333334,-0.6983050847457627
5.711111111111111,-0.5559322033898305
5.7138888888888895,-0.5016949152542373
5.716666666666667,-0.47796610169491527
5.719444444444445,-0.44745762711864406
5.722222222222222,-0.4101694915254237
5.7250000000000005,-0.3728813559322034
5.727777777777778,-0.3254237288135593
5.730555555555556,-0.29491525423728815
5.733333333333333,-0.29152542372881357
5.736111111111112,-0.3016949152542373
5.738888888888889,-0.31186440677966104
5.741666666666667,-0.30847457627118646
5.7444444444444445,-0.288135593220339
5.747222222222223,-0.2847457627118644
5.75,-0.29152542372881357
5.752777777777778,-0.29152542372881357
5.7555555555555555,-0.29152542372881357
5.758333333333334,-0.29491525423728815
5.761111111111111,-0.29152542372881357
5.763888888888889,-0.288135593220339
5.766666666666667,-0.27796610169491526
5.769444444444445,-0.2677966101694915
5.772222222222222,-0.2745762711864407
5.775,-0.28135593220338984
5.777777777777778,-0.2711864406779661
5.780555555555556,-0.26440677966101694
5.783333333333333,-0.26101694915254237
5.786111111111111,-0.26101694915254237
5.788888888888889,-0.25084745762711863
5.791666666666667,-0.23728813559322035
5.794444444444444,-0.2576271186440678
5.7972222222222225,-0.2711864406779661
5.8,-0.2576271186440678
5.802777777777778,-0.24745762711864408
5.805555555555555,-0.2542372881355932
5.808333333333334,-0.2542372881355932
5.811111111111111,-0.2440677966101695
5.813888888888889,-0.23389830508474577
5.816666666666667,-0.23389830508474577
5.819444444444445,-0.23728813559322035
5.822222222222223,-0.2440677966101695
5.825,-0.2305084745762712
5.827777777777778,-0.2271186440677966
5.830555555555556,-0.22033898305084745
5.833333333333334,-0.22372881355932203
5.836111111111111,-0.23728813559322035
5.8388888888888895,-0.2440677966101695
5.841666666666667,-0.22372881355932203
5.844444444444445,-0.2
5.847222222222222,-0.2033898305084746
5.8500000000000005,-0.21016949152542372
5.852777777777778,-0.19661016949152543
5.855555555555556,-0.18983050847457628
5.858333333333333,-0.19322033898305085
5.861111111111112,-0.1864406779661017
5.863888888888889,-0.1694915254237288
5.866666666666667,-0.15254237288135594
5.8694444444444445,-0.15932203389830507
5.872222222222223,-0.15932203389830507
5.875,-0.16610169491525423
5.877777777777778,-0.15932203389830507
5.8805555555555555,-0.14915254237288136
5.883333333333334,-0.1288135593220339
5.886111111111111,-0.10508474576271186
5.888888888888889,-0.09491525423728814
5.891666666666667,-0.09491525423728814
5.894444444444445,-0.08813559322033898
5.897222222222222,-0.06779661016949153
5.9,-0.04745762711864407
5.902777777777778,-0.03389830508474576
5.905555555555556,-0.013559322033898305
5.908333333333333,0.013559322033898305
5.911111111111111,0.03728813559322034
5.913888888888889,0.061016949152542375
5.916666666666667,0.08813559322033898
5.919444444444444,0.12203389830508475
5.9222222222222225,0.15254237288135594
5.925,0.16610169491525423
5.927777777777778,0.2
5.930555555555555,0.24067796610169492
5.933333333333334,0.26101694915254237
5.936111111111111,0.2677966101694915
5.938888888888889,0.28135593220338984
5.941666666666667,0.31864406779661014
5.944444444444445,0.3593220338983051
5.947222222222223,0.37966101694915255
5.95,0.39322033898305087
5.952777777777778,0.4067796610169492
5.955555555555556,0.423728813559322
5.958333333333334,0.43728813559322033
5.961111111111111,0.4610169491525424
5.9638888888888895,0.47796610169491527
5.966666666666667,0.49491525423728816
5.969444444444445,0.49491525423728816
5.972222222222222,0.488135593220339
5.9750000000000005,0.49830508474576274
5.977777777777778,0.511864406779661
5.980555555555556,0.5220338983050847
5.983333333333333,0.5254237288135594
5.986111111111112,0.5084745762711864
5.988888888888889,0.5016949152542373
5.991666666666667,0.49491525423728816
5.9944444444444445,0.4847457627118644
5.997222222222223,0.49830508474576274
6.0,0.49491525423728816
6.002777777777778,0.4711864406779661
6.0055555555555555,0.45084745762711864
6.008333333333334,0.4440677966101695
6.011111111111111,0.43728813559322033
6.013888888888889,0.4101694915254237
6.016666666666667,0.36271186440677966
6.019444444444445,0.3152542372881356
6.022222222222222,0.27796610169491526
6.025,0.26440677966101694
6.027777777777778,0.2440677966101695
6.030555555555556,0.2033898305084746
6.033333333333333,0.16610169491525423
6.036111111111111,0.1423728813559322
6.038888888888889,0.10847457627118644
6.041666666666667,0.06779661016949153
6.044444444444444,0.030508474576271188
6.0472222222222225,0.0
6.05,-0.03389830508474576
6.052777777777778,-0.05423728813559322
6.055555555555555,-0.08135593220338982
6.058333333333334,-0.09152542372881356
6.061111111111112,-0.09491525423728814
6.063888888888889,-0.10847457627118644
6.066666666666667,-0.1423728813559322
6.069444444444445,-0.1694915254237288
6.072222222222223,-0.17627118644067796
6.075,-0.17627118644067796
6.077777777777778,-0.18983050847457628
6.080555555555556,-0.2033898305084746
6.083333333333334,-0.2033898305084746
6.086111111111111,-0.2135593220338983
6.0888888888888895,-0.2305084745762712
6.091666666666667,-0.23728813559322035
6.094444444444445,-0.2440677966101695
6.097222222222222,-0.24745762711864408
6.1000000000000005,-0.25084745762711863
6.102777777777778,-0.2677966101694915
6.105555555555556,-0.29152542372881357
6.108333333333333,-0.29152542372881357
6.111111111111112,-0.29152542372881357
6.113888888888889,-0.3050847457627119
6.116666666666667,-0.31186440677966104
6.1194444444444445,-0.31186440677966104
6.122222222222223,-0.3152542372881356
6.125,-0.3152542372881356
6.127777777777778,-0.3152542372881356
6.1305555555555555,-0.3254237288135593
6.133333333333334,-0.33559322033898303
6.136111111111111,-0.3254237288135593
6.138888888888889,-0.3152542372881356
6.141666666666667,-0.3152542372881356
6.144444444444445,-0.3050847457627119
6.147222222222222,-0.3220338983050847
6.15,-0.3220338983050847
6.152777777777778,-0.3152542372881356
6.155555555555556,-0.31864406779661014
6.158333333333333,-0.3220338983050847
6.161111111111111,-0.31186440677966104
6.163888888888889,-0.2983050847457627
6.166666666666667,-0.29152542372881357
6.169444444444444,-0.3016949152542373
6.1722222222222225,-0.31864406779661014
6.175,-0.3050847457627119
6.177777777777778,-0.288135593220339
6.180555555555555,-0.2745762711864407
6.183333333333334,-0.26101694915254237
6.186111111111112,-0.2576271186440678
6.188888888888889,-0.2542372881355932
6.191666666666667,-0.2440677966101695
6.194444444444445,-0.2305084745762712
6.197222222222223,-0.24067796610169492
6.2,-0.25084745762711863
6.202777777777778,-0.2542372881355932
6.205555555555556,-0.2576271186440678
6.208333333333334,-0.25084745762711863
6.211111111111111,-0.23389830508474577
6.2138888888888895,-0.2135593220338983
6.216666666666667,-0.20677966101694914
6.219444444444445,-0.22372881355932203
6.222222222222222,-0.23389830508474577
6.2250000000000005,-0.21694915254237288
6.227777777777778,-0.18983050847457628
6.230555555555556,-0.17288135593220338
6.233333333333333,-0.16610169491525423
6.236111111111112,-0.17288135593220338
6.238888888888889,-0.1864406779661017
6.241666666666667,-0.18983050847457628
6.2444444444444445,-0.18983050847457628
6.247222222222223,-0.18983050847457628
6.25,-0.18983050847457628
6.252777777777778,-0.18983050847457628
6.2555555555555555,-0.18983050847457628
6.258333333333334,-0.18983050847457628
6.261111111111111,-0.1864406779661017
6.263888888888889,-0.17966101694915254
6.266666666666667,-0.1694915254237288
6.269444444444445,-0.17627118644067796
6.272222222222222,-0.19322033898305085
6.275,-0.21694915254237288
6.277777777777778,-0.21016949152542372
6.280555555555556,-0.1864406779661017
6.283333333333333,-0.17288135593220338
6.286111111111111,-0.18305084745762712
6.288888888888889,-0.19322033898305085
6.291666666666667,-0.2033898305084746
6.294444444444444,-0.2
6.2972222222222225,-0.2033898305084746
6.3,-0.2135593220338983
6.302777777777778,-0.21694915254237288
6.305555555555555,-0.2135593220338983
6.308333333333334,-0.22033898305084745
6.311111111111112,-0.22372881355932203
6.313888888888889,-0.22033898305084745
6.316666666666667,-0.21694915254237288
6.319444444444445,-0.22033898305084745
6.322222222222223,-0.2305084745762712
6.325,-0.24067796610169492
6.327777777777778,-0.23728813559322035
6.330555555555556,-0.2033898305084746
6.333333333333334,-0.1864406779661017
6.336111111111111,-0.2033898305084746
6.3388888888888895,-0.2305084745762712
6.341666666666667,-0.23389830508474577
6.344444444444445,-0.2305084745762712
6.347222222222222,-0.2305084745762712
6.3500000000000005,-0.23728813559322035
6.352777777777778,-0.23728813559322035
6.355555555555556,-0.24067796610169492
6.358333333333333,-0.2440677966101695
6.361111111111112,-0.23728813559322035
6.363888888888889,-0.2305084745762712
6.366666666666667,-0.2305084745762712
6.3694444444444445,-0.2440677966101695
6.372222222222223,-0.2576271186440678
6.375,-0.2440677966101695
6.377777777777778,-0.21694915254237288
6.3805555555555555,-0.2271186440677966
6.383333333333334,-0.25084745762711863
6.386111111111111,-0.2576271186440678
6.388888888888889,-0.25084745762711863
6.391666666666667,-0.25084745762711863
6.394444444444445,-0.2440677966101695
6.397222222222222,-0.2305084745762712
6.4,-0.23728813559322035
6.402777777777778,-0.24745762711864408
6.405555555555556,-0.24745762711864408
6.408333333333333,-0.2440677966101695
6.411111111111111,-0.24745762711864408
6.413888888888889,-0.2440677966101695
6.416666666666667,-0.2305084745762712
6.419444444444444,-0.22372881355932203
6.4222222222222225,-0.23728813559322035
6.425,-0.24067796610169492
6.427777777777778,-0.2271186440677966
6.430555555555555,-0.23728813559322035
6.433333333333334,-0.2542372881355932
6.436111111111112,-0.2576271186440678
6.438888888888889,-0.2711864406779661
6.441666666666667,-0.2847457627118644
6.444444444444445,-0.26440677966101694
6.447222222222223,-0.24067796610169492
6.45,-0.24067796610169492
6.452777777777778,-0.26440677966101694
6.455555555555556,-0.26101694915254237
6.458333333333334,-0.23728813559322035
6.461111111111111,-0.22372881355932203
6.4638888888888895,-0.25084745762711863
6.466666666666667,-0.26440677966101694
6.469444444444445,-0.25084745762711863
6.472222222222222,-0.24067796610169492
6.4750000000000005,-0.24745762711864408
6.477777777777778,-0.2542372881355932
6.480555555555556,-0.26101694915254237
6.483333333333333,-0.26101694915254237
6.486111111111112,-0.2542372881355932
6.488888888888889,-0.24745762711864408
6.491666666666667,-0.24067796610169492
6.4944444444444445,-0.2440677966101695
6.497222222222223,-0.2440677966101695
6.5,-0.2440677966101695
6.502777777777778,-0.2576271186440678
6.5055555555555555,-0.2677966101694915
6.508333333333334,-0.2576271186440678
6.511111111111111,-0.23389830508474577
6.513888888888889,-0.2305084745762712
6.516666666666667,-0.24067796610169492
6.519444444444445,-0.2542372881355932
6.522222222222222,-0.2576271186440678
6.525,-0.2576271186440678
6.527777777777778,-0.2305084745762712
6.530555555555556,-0.2
6.533333333333333,-0.18983050847457628
6.536111111111111,-0.19322033898305085
6.538888888888889,-0.19322033898305085
6.541666666666667,-0.1864406779661017
6.544444444444444,-0.17966101694915254
6.5472222222222225,-0.17627118644067796
6.55,-0.1694915254237288
6.552777777777778,-0.17627118644067796
6.555555555555556,-0.17288135593220338
6.558333333333334,-0.1423728813559322
6.561111111111112,-0.10847457627118644
6.563888888888889,-0.08813559322033898
6.566666666666667,-0.08813559322033898
6.569444444444445,-0.08813559322033898
6.572222222222223,-0.0847457627118644
6.575,-0.06779661016949153
6.577777777777778,-0.06779661016949153
6.580555555555556,-0.07457627118644068
6.583333333333334,-0.07457627118644068
6.586111111111111,-0.0847457627118644
6.5888888888888895,-0.07796610169491526
6.591666666666667,-0.06779661016949153
6.594444444444445,-0.0576271186440678
6.597222222222222,-0.08135593220338982
6.6000000000000005,-0.10847457627118644
6.602777777777778,-0.13220338983050847
6.605555555555556,-0.1423728813559322
6.608333333333333,-0.13898305084745763
6.611111111111112,-0.13559322033898305
6.613888888888889,-0.15254237288135594
6.616666666666667,-0.17627118644067796
6.6194444444444445,-0.2
6.622222222222223,-0.2271186440677966
6.625,-0.24745762711864408
6.627777777777778,-0.25084745762711863
6.6305555555555555,-0.2576271186440678
6.633333333333334,-0.26101694915254237
6.636111111111111,-0.2711864406779661
6.638888888888889,-0.2847457627118644
6.641666666666667,-0.29152542372881357
6.644444444444445,-0.2847457627118644
6.647222222222222,-0.29152542372881357
6.65,-0.3016949152542373
6.652777777777778,-0.3050847457627119
6.655555555555556,-0.29152542372881357
6.658333333333333,-0.3016949152542373
6.661111111111111,-0.3152542372881356
6.663888888888889,-0.3220338983050847
6.666666666666667,-0.3220338983050847
6.669444444444444,-0.3152542372881356
6.6722222222222225,-0.30847457627118646
6.675,-0.3050847457627119
6.677777777777778,-0.29491525423728815
6.680555555555556,-0.288135593220339
6.683333333333334,-0.3016949152542373
6.686111111111112,-0.33220338983050846
6.688888888888889,-0.3423728813559322
6.691666666666667,-0.31186440677966104
6.694444444444445,-0.2440677966101695
6.697222222222223,-0.15593220338983052
6.7,-0.05423728813559322
6.702777777777778,0.09491525423728814
6.705555555555556,0.31864406779661014
6.708333333333334,0.6101694915254238
6.711111111111111,1.0305084745762711
6.7138888888888895,1.6135593220338984
6.716666666666667,2.2711864406779663
6.719444444444445,2.8813559322033897
6.722222222222222,3.2576271186440677
6.7250000000000005,3.227118644067797
6.727777777777778,2.8847457627118644
6.730555555555556,2.4169491525423727
6.733333333333333,1.847457627118644
6.736111111111112,1.0745762711864406
6.738888888888889,0.23728813559322035
6.741666666666667,-0.38305084745762713
6.7444444444444445,-0.7254237288135593
6.747222222222223,-0.8508474576271187
6.75,-0.7898305084745763
6.752777777777778,-0.6406779661016949
6.7555555555555555,-0.5423728813559322
6.758333333333334,-0.5084745762711864
6.761111111111111,-0.47796610169491527
6.763888888888889,-0.45084745762711864
6.766666666666667,-0.4033898305084746
6.769444444444445,-0.3593220338983051
6.772222222222222,-0.33220338983050846
6.775,-0.3152542372881356
6.777777777777778,-0.3152542372881356
6.780555555555556,-0.31864406779661014
6.783333333333333,-0.31864406779661014
6.786111111111111,-0.3152542372881356
6.788888888888889,-0.3152542372881356
6.791666666666667,-0.31186440677966104
6.794444444444444,-0.30847457627118646
6.7972222222222225,-0.3050847457627119
6.8,-0.3016949152542373
6.802777777777778,-0.30847457627118646
6.805555555555556,-0.3220338983050847
6.808333333333334,-0.31864406779661014
6.811111111111112,-0.3050847457627119
6.813888888888889,-0.2983050847457627
6.816666666666667,-0.288135593220339
6.819444444444445,-0.3016949152542373
6.822222222222223,-0.3050847457627119
6.825,-0.288135593220339
6.827777777777778,-0.26440677966101694
6.830555555555556,-0.2711864406779661
6.833333333333334,-0.28135593220338984
6.836111111111111,-0.28135593220338984
6.8388888888888895,-0.28135593220338984
6.841666666666667,-0.28135593220338984
6.844444444444445,-0.2745762711864407
6.847222222222222,-0.2745762711864407
6.8500000000000005,-0.28135593220338984
6.852777777777778,-0.2847457627118644
6.855555555555556,-0.29152542372881357
6.858333333333333,-0.27796610169491526
6.861111111111112,-0.26101694915254237
6.863888888888889,-0.26101694915254237
6.866666666666667,-0.2677966101694915
6.8694444444444445,-0.26440677966101694
6.872222222222223,-0.2576271186440678
6.875,-0.25084745762711863
6.877777777777778,-0.24067796610169492
6.8805555555555555,-0.2305084745762712
6.883333333333334,-0.22372881355932203
6.886111111111111,-0.23728813559322035
6.888888888888889,-0.2440677966101695
6.891666666666667,-0.24067796610169492
6.894444444444445,-0.23389830508474577
6.897222222222222,-0.22033898305084745
6.9,-0.2135593220338983
6.902777777777778,-0.21016949152542372
6.905555555555556,-0.2135593220338983
6.908333333333333,-0.2
6.911111111111111,-0.18983050847457628
6.913888888888889,-0.1694915254237288
6.916666666666667,-0.15932203389830507
6.919444444444444,-0.15932203389830507
6.9222222222222225,-0.16271186440677965
6.925,-0.15593220338983052
6.927777777777778,-0.13559322033898305
6.930555555555556,-0.12203389830508475
6.933333333333334,-0.09830508474576272
6.936111111111112,-0.08813559322033898
6.938888888888889,-0.08135593220338982
6.941666666666667,-0.07457627118644068
6.944444444444445,-0.05423728813559322
6.947222222222223,-0.030508474576271188
6.95,-0.006779661016949152
6.952777777777778,0.0
6.955555555555556,0.01694915254237288
6.958333333333334,0.04406779661016949
6.961111111111111,0.0847457627118644
6.9638888888888895,0.11864406779661017
6.966666666666667,0.1423728813559322
6.969444444444445,0.15254237288135594
6.972222222222222,0.16271186440677965
6.9750000000000005,0.19661016949152543
6.977777777777778,0.24067796610169492
6.980555555555556,0.2711864406779661
6.983333333333333,0.288135593220339
6.986111111111112,0.31186440677966104
6.988888888888889,0.33559322033898303
6.991666666666667,0.3593220338983051
6.9944444444444445,0.3864406779661017
6.997222222222223,0.39661016949152544
7.0,0.4135593220338983
7.002777777777778,0.42033898305084744
7.0055555555555555,0.43389830508474575
7.008333333333334,0.4542372881355932
7.011111111111111,0.47796610169491527
7.013888888888889,0.49491525423728816
7.016666666666667,0.4915254237288136
7.019444444444445,0.488135593220339
7.022222222222222,0.488135593220339
7.025,0.49491525423728816
7.027777777777778,0.49491525423728816
7.030555555555556,0.49491525423728816
7.033333333333333,0.49491525423728816
7.036111111111111,0.488135593220339
7.038888888888889,0.4745762711864407
7.041666666666667,0.4576271186440678
7.044444444444444,0.4440677966101695
7.0472222222222225,0.43050847457627117
7.050000000000001,0.4135593220338983
7.052777777777778,0.38305084745762713
7.055555555555556,0.3593220338983051
7.058333333333334,0.3423728813559322
7.061111111111112,0.3288135593220339
7.063888888888889,0.3016949152542373
7.066666666666667,0.2711864406779661
7.069444444444445,0.22033898305084745
7.072222222222223,0.1694915254237288
7.075,0.1288135593220339
7.077777777777778,0.11864406779661017
7.080555555555556,0.1016949152542373
7.083333333333334,0.06440677966101695
7.086111111111111,0.01694915254237288
7.0888888888888895,-0.010169491525423728
7.091666666666667,-0.03728813559322034
7.094444444444445,-0.05423728813559322
7.097222222222222,-0.06779661016949153
7.1000000000000005,-0.09152542372881356
7.102777777777778,-0.12203389830508475
7.105555555555556,-0.15254237288135594
7.108333333333333,-0.17627118644067796
7.111111111111112,-0.1864406779661017
7.113888888888889,-0.1864406779661017
7.116666666666667,-0.1864406779661017
7.1194444444444445,-0.2033898305084746
7.122222222222223,-0.2305084745762712
7.125,-0.24067796610169492
7.127777777777778,-0.24067796610169492
7.1305555555555555,-0.2542372881355932
7.133333333333334,-0.2711864406779661
7.136111111111111,-0.28135593220338984
7.138888888888889,-0.28135593220338984
7.141666666666667,-0.29152542372881357
7.144444444444445,-0.28135593220338984
7.147222222222222,-0.26440677966101694
7.15,-0.2711864406779661
7.152777777777778,-0.2983050847457627
7.155555555555556,-0.30847457627118646
7.158333333333333,-0.2983050847457627
7.161111111111111,-0.2983050847457627
7.163888888888889,-0.30847457627118646
7.166666666666667,-0.3152542372881356
7.169444444444444,-0.31864406779661014
7.1722222222222225,-0.3220338983050847
7.175000000000001,-0.3220338983050847
7.177777777777778,-0.3220338983050847
7.180555555555556,-0.33559322033898303
7.183333333333334,-0.34576271186440677
7.186111111111112,-0.3423728813559322
7.188888888888889,-0.34915254237288135
7.191666666666667,-0.34915254237288135
7.194444444444445,-0.3254237288135593
7.197222222222223,-0.30847457627118646
7.2,-0.3288135593220339
7.202777777777778,-0.34576271186440677
7.205555555555556,-0.34915254237288135
7.208333333333334,-0.3389830508474576
7.211111111111111,-0.31864406779661014
7.2138888888888895,-0.31864406779661014
7.216666666666667,-0.31864406779661014
7.219444444444445,-0.3152542372881356
7.222222222222222,-0.31864406779661014
7.2250000000000005,-0.3254237288135593
7.227777777777778,-0.31186440677966104
7.230555555555556,-0.3050847457627119
7.233333333333333,-0.29152542372881357
7.236111111111112,-0.29152542372881357
7.238888888888889,-0.29491525423728815
7.241666666666667,-0.2847457627118644
7.2444444444444445,-0.27796610169491526
7.247222222222223,-0.2745762711864407
7.25,-0.26101694915254237
7.252777777777778,-0.25084745762711863
7.2555555555555555,-0.2576271186440678
7.258333333333334,-0.26440677966101694
7.261111111111111,-0.23389830508474577
7.263888888888889,-0.21694915254237288
7.266666666666667,-0.22372881355932203
7.269444444444445,-0.23728813559322035
7.272222222222222,-0.2305084745762712
7.275,-0.21694915254237288
7.277777777777778,-0.21694915254237288
7.280555555555556,-0.21694915254237288
7.283333333333333,-0.20677966101694914
7.286111111111111,-0.2033898305084746
7.288888888888889,-0.2135593220338983
7.291666666666667,-0.21016949152542372
7.294444444444444,-0.2033898305084746
7.2972222222222225,-0.19322033898305085
7.300000000000001,-0.2
7.302777777777778,-0.21016949152542372
7.305555555555556,-0.21694915254237288
7.308333333333334,-0.21694915254237288
7.311111111111112,-0.20677966101694914
7.313888888888889,-0.2
7.316666666666667,-0.21016949152542372
7.319444444444445,-0.2271186440677966
7.322222222222223,-0.2305084745762712
7.325,-0.22033898305084745
7.327777777777778,-0.21016949152542372
7.330555555555556,-0.2135593220338983
7.333333333333334,-0.2271186440677966
7.336111111111111,-0.23728813559322035
7.3388888888888895,-0.24067796610169492
7.341666666666667,-0.24067796610169492
7.344444444444445,-0.23728813559322035
7.347222222222222,-0.24067796610169492
7.3500000000000005,-0.2440677966101695
7.352777777777778,-0.2440677966101695
7.355555555555556,-0.24067796610169492
7.358333333333333,-0.25084745762711863
7.361111111111112,-0.26101694915254237
7.363888888888889,-0.2440677966101695
7.366666666666667,-0.2305084745762712
7.3694444444444445,-0.2440677966101695
7.372222222222223,-0.2677966101694915
7.375,-0.26440677966101694
7.377777777777778,-0.2440677966101695
7.3805555555555555,-0.24745762711864408
7.383333333333334,-0.2576271186440678
7.386111111111111,-0.26101694915254237
7.388888888888889,-0.26440677966101694
7.391666666666667,-0.2745762711864407
7.394444444444445,-0.26440677966101694
7.397222222222222,-0.2440677966101695
7.4,-0.2542372881355932
7.402777777777778,-0.2711864406779661
7.405555555555556,-0.2745762711864407
7.408333333333333,-0.2711864406779661
7.411111111111111,-0.2677966101694915
7.413888888888889,-0.26440677966101694
7.416666666666667,-0.26440677966101694
7.419444444444444,-0.2711864406779661
7.4222222222222225,-0.2745762711864407
7.425000000000001,-0.2677966101694915
7.427777777777778,-0.2576271186440678
7.430555555555556,-0.26440677966101694
7.433333333333334,-0.2711864406779661
7.436111111111112,-0.27796610169491526
7.438888888888889,-0.2847457627118644
7.441666666666667,-0.2745762711864407
7.444444444444445,-0.2576271186440678
7.447222222222223,-0.2576271186440678
7.45,-0.26440677966101694
7.452777777777778,-0.26101694915254237
7.455555555555556,-0.26440677966101694
7.458333333333334,-0.2677966101694915
7.461111111111111,-0.26440677966101694
7.4638888888888895,-0.2745762711864407
7.466666666666667,-0.288135593220339
7.469444444444445,-0.29152542372881357
7.472222222222222,-0.29152542372881357
7.4750000000000005,-0.29152542372881357
7.477777777777778,-0.2711864406779661
7.480555555555556,-0.2542372881355932
7.483333333333333,-0.26101694915254237
7.486111111111112,-0.28135593220338984
7.488888888888889,-0.28135593220338984
7.491666666666667,-0.2711864406779661
7.4944444444444445,-0.2677966101694915
7.497222222222223,-0.2576271186440678
7.5,-0.2711864406779661
7.502777777777778,-0.2983050847457627
7.5055555555555555,-0.2983050847457627
7.508333333333334,-0.2847457627118644
7.511111111111111,-0.27796610169491526
7.513888888888889,-0.27796610169491526
7.516666666666667,-0.2745762711864407
7.519444444444445,-0.2745762711864407
7.522222222222222,-0.2847457627118644
7.525,-0.28135593220338984
7.527777777777778,-0.2677966101694915
7.530555555555556,-0.2677966101694915
7.533333333333333,-0.2711864406779661
7.536111111111111,-0.2711864406779661
7.538888888888889,-0.28135593220338984
7.541666666666667,-0.2745762711864407
7.544444444444445,-0.25084745762711863
7.5472222222222225,-0.2305084745762712
7.550000000000001,-0.22372881355932203
7.552777777777778,-0.21694915254237288
7.555555555555556,-0.20677966101694914
7.558333333333334,-0.19661016949152543
7.561111111111112,-0.18983050847457628
7.563888888888889,-0.18305084745762712
7.566666666666667,-0.17288135593220338
7.569444444444445,-0.16610169491525423
7.572222222222223,-0.16610169491525423
7.575,-0.17288135593220338
7.577777777777778,-0.15932203389830507
7.580555555555556,-0.13559322033898305
7.583333333333334,-0.10847457627118644
7.586111111111111,-0.10508474576271186
7.5888888888888895,-0.10508474576271186
7.591666666666667,-0.1016949152542373
7.594444444444445,-0.09830508474576272
7.597222222222222,-0.10847457627118644
7.6000000000000005,-0.11864406779661017
7.602777777777778,-0.11864406779661017
7.605555555555556,-0.1016949152542373
7.608333333333333,-0.08813559322033898
7.611111111111112,-0.10508474576271186
7.613888888888889,-0.1288135593220339
7.616666666666667,-0.14915254237288136
7.6194444444444445,-0.17288135593220338
7.622222222222223,-0.18305084745762712
7.625,-0.17288135593220338
7.627777777777778,-0.16610169491525423
7.6305555555555555,-0.1694915254237288
7.633333333333334,-0.18305084745762712
7.636111111111111,-0.2135593220338983
7.638888888888889,-0.24745762711864408
7.641666666666667,-0.2711864406779661
7.644444444444445,-0.28135593220338984
7.647222222222222,-0.288135593220339
7.65,-0.2847457627118644
7.652777777777778,-0.2983050847457627
7.655555555555556,-0.3220338983050847
7.658333333333333,-0.3220338983050847
7.661111111111111,-0.31186440677966104
7.663888888888889,-0.31864406779661014
7.666666666666667,-0.3220338983050847
7.669444444444445,-0.33559322033898303
7.6722222222222225,-0.3389830508474576
7.675000000000001,-0.33220338983050846
7.677777777777778,-0.3288135593220339
7.680555555555556,-0.33220338983050846
7.683333333333334,-0.3254237288135593
7.686111111111112,-0.3288135593220339
7.688888888888889,-0.33559322033898303
7.691666666666667,-0.33220338983050846
7.694444444444445,-0.3288135593220339
7.697222222222223,-0.3254237288135593
7.7,-0.34576271186440677
7.702777777777778,-0.38305084745762713
7.705555555555556,-0.4033898305084746
7.708333333333334,-0.3728813559322034
7.711111111111111,-0.29491525423728815
7.7138888888888895,-0.20677966101694914
7.716666666666667,-0.1016949152542373
7.719444444444445,0.0576271186440678
7.722222222222222,0.29491525423728815
7.7250000000000005,0.6033898305084746
7.727777777777778,1.047457627118644
7.730555555555556,1.6542372881355931
7.733333333333333,2.3559322033898304
7.736111111111112,2.989830508474576
7.738888888888889,3.3389830508474576
7.741666666666667,3.2915254237288134
7.7444444444444445,2.983050847457627
7.747222222222223,2.5661016949152544
7.75,2.0406779661016947
7.752777777777778,1.2949152542372881
7.7555555555555555,0.39661016949152544
7.758333333333334,-0.2847457627118644
7.761111111111111,-0.6406779661016949
7.763888888888889,-0.752542372881356
7.766666666666667,-0.6847457627118644
7.769444444444445,-0.5694915254237288
7.772222222222222,-0.4847457627118644
7.775,-0.4542372881355932
7.777777777777778,-0.43389830508474575
7.780555555555556,-0.43389830508474575
7.783333333333333,-0.4101694915254237
7.786111111111111,-0.38305084745762713
7.788888888888889,-0.3593220338983051
7.791666666666667,-0.3559322033898305
7.794444444444445,-0.34915254237288135
7.7972222222222225,-0.34915254237288135
7.800000000000001,-0.3559322033898305
7.802777777777778,-0.3593220338983051
7.805555555555556,-0.3559322033898305
7.808333333333334,-0.3559322033898305
7.811111111111112,-0.34576271186440677
7.813888888888889,-0.34576271186440677
7.816666666666667,-0.3423728813559322
7.819444444444445,-0.3389830508474576
7.822222222222223,-0.33559322033898303
7.825,-0.3288135593220339
7.827777777777778,-0.3220338983050847
7.830555555555556,-0.31864406779661014
7.833333333333334,-0.3254237288135593
7.836111111111111,-0.3254237288135593
7.8388888888888895,-0.3254237288135593
7.841666666666667,-0.3288135593220339
7.844444444444445,-0.3254237288135593
7.847222222222222,-0.3220338983050847
7.8500000000000005,-0.30847457627118646
7.852777777777778,-0.3016949152542373
7.855555555555556,-0.3152542372881356
7.858333333333333,-0.31864406779661014
7.861111111111112,-0.3152542372881356
7.863888888888889,-0.3050847457627119
7.866666666666667,-0.2983050847457627
7.8694444444444445,-0.30847457627118646
7.872222222222223,-0.31186440677966104
7.875,-0.3050847457627119
7.877777777777778,-0.2983050847457627
7.8805555555555555,-0.29491525423728815
7.883333333333334,-0.2983050847457627
7.886111111111111,-0.31186440677966104
7.888888888888889,-0.31186440677966104
7.891666666666667,-0.29491525423728815
7.894444444444445,-0.28135593220338984
7.897222222222222,-0.2745762711864407
7.9,-0.2711864406779661
7.902777777777778,-0.27796610169491526
7.905555555555556,-0.288135593220339
7.908333333333333,-0.28135593220338984
7.911111111111111,-0.2576271186440678
7.913888888888889,-0.2576271186440678
7.916666666666667,-0.24745762711864408
7.919444444444445,-0.23728813559322035
7.9222222222222225,-0.23389830508474577
7.925000000000001,-0.22372881355932203
7.927777777777778,-0.2135593220338983
7.930555555555556,-0.2135593220338983
7.933333333333334,-0.20677966101694914
7.936111111111112,-0.18983050847457628
7.938888888888889,-0.19322033898305085
7.941666666666667,-0.18305084745762712
7.944444444444445,-0.15932203389830507
7.947222222222223,-0.13559322033898305
7.95,-0.11864406779661017
7.952777777777778,-0.11864406779661017
7.955555555555556,-0.1152542372881356
7.958333333333334,-0.10508474576271186
7.961111111111111,-0.07457627118644068
7.9638888888888895,-0.05084745762711865
7.966666666666667,-0.030508474576271188
7.969444444444445,-0.013559322033898305
7.972222222222222,0.0
7.9750000000000005,0.01694915254237288
7.977777777777778,0.04406779661016949
7.980555555555556,0.08813559322033898
7.983333333333333,0.11864406779661017
7.986111111111112,0.13559322033898305
7.988888888888889,0.16610169491525423
7.991666666666667,0.2
7.9944444444444445,0.2271186440677966
7.997222222222223,0.24745762711864408
8.0,0.2745762711864407
8.002777777777778,0.3050847457627119
8.005555555555556,0.3254237288135593
8.008333333333333,0.3525423728813559
8.011111111111111,0.37966101694915255
8.01388888888889,0.4
8.016666666666667,0.42033898305084744
8.019444444444444,0.4271186440677966
8.022222222222222,0.43389830508474575
8.025,0.4576271186440678
8.027777777777779,0.4847457627118644
8.030555555555555,0.5050847457627119
8.033333333333333,0.49830508474576274
8.036111111111111,0.4847457627118644
8.03888888888889,0.4847457627118644
8.041666666666668,0.5016949152542373
8.044444444444444,0.5152542372881356
8.047222222222222,0.511864406779661
8.05,0.5050847457627119
8.052777777777779,0.49491525423728816
8.055555555555555,0.4745762711864407
8.058333333333334,0.4711864406779661
8.061111111111112,0.4711864406779661
8.06388888888889,0.44745762711864406
8.066666666666666,0.42033898305084744
8.069444444444445,0.3898305084745763
8.072222222222223,0.3593220338983051
8.075000000000001,0.3389830508474576
8.077777777777778,0.3288135593220339
8.080555555555556,0.30847457627118646
8.083333333333334,0.2576271186440678
8.086111111111112,0.19322033898305085
8.088888888888889,0.1694915254237288
8.091666666666667,0.15254237288135594
8.094444444444445,0.12542372881355932
8.097222222222223,0.08813559322033898
8.1,0.04067796610169491
8.102777777777778,-0.006779661016949152
8.105555555555556,-0.04067796610169491
8.108333333333334,-0.0576271186440678
8.11111111111111,-0.07457627118644068
8.113888888888889,-0.08813559322033898
8.116666666666667,-0.1152542372881356
8.119444444444445,-0.13898305084745763
8.122222222222222,-0.16271186440677965
8.125,-0.17288135593220338
8.127777777777778,-0.18983050847457628
8.130555555555556,-0.20677966101694914
8.133333333333333,-0.22033898305084745
8.136111111111111,-0.23728813559322035
8.13888888888889,-0.2542372881355932
8.141666666666667,-0.25084745762711863
8.144444444444444,-0.25084745762711863
8.147222222222222,-0.2576271186440678
8.15,-0.2677966101694915
8.152777777777779,-0.27796610169491526
8.155555555555555,-0.2847457627118644
8.158333333333333,-0.2847457627118644
8.161111111111111,-0.27796610169491526
8.16388888888889,-0.27796610169491526
8.166666666666668,-0.29152542372881357
8.169444444444444,-0.29152542372881357
8.172222222222222,-0.29491525423728815
8.175,-0.2983050847457627
8.177777777777779,-0.29152542372881357
8.180555555555555,-0.2847457627118644
8.183333333333334,-0.288135593220339
8.186111111111112,-0.30847457627118646
8.18888888888889,-0.31864406779661014
8.191666666666666,-0.31186440677966104
8.194444444444445,-0.30847457627118646
8.197222222222223,-0.2983050847457627
8.200000000000001,-0.31186440677966104
8.202777777777778,-0.3254237288135593
8.205555555555556,-0.33220338983050846
8.208333333333334,-0.33220338983050846
8.211111111111112,-0.33559322033898303
8.213888888888889,-0.3525423728813559
8.216666666666667,-0.3559322033898305
8.219444444444445,-0.3389830508474576
8.222222222222223,-0.3423728813559322
8.225,-0.34576271186440677
8.227777777777778,-0.3423728813559322
8.230555555555556,-0.3389830508474576
8.233333333333334,-0.33559322033898303
8.23611111111111,-0.34576271186440677
8.238888888888889,-0.3559322033898305
8.241666666666667,-0.34576271186440677
8.244444444444445,-0.33559322033898303
8.247222222222222,-0.3288135593220339
8.25,-0.33220338983050846
8.252777777777778,-0.3423728813559322
8.255555555555556,-0.3288135593220339
8.258333333333333,-0.31864406779661014
8.261111111111111,-0.30847457627118646
8.26388888888889,-0.2983050847457627
8.266666666666667,-0.2983050847457627
8.269444444444444,-0.31186440677966104
8.272222222222222,-0.30847457627118646
8.275,-0.3050847457627119
8.277777777777779,-0.3016949152542373
8.280555555555555,-0.2711864406779661
8.283333333333333,-0.2576271186440678
8.286111111111111,-0.26101694915254237
8.28888888888889,-0.2745762711864407
8.291666666666668,-0.27796610169491526
8.294444444444444,-0.26440677966101694
8.297222222222222,-0.25084745762711863
8.3,-0.2440677966101695
8.302777777777779,-0.23728813559322035
8.305555555555555,-0.25084745762711863
8.308333333333334,-0.2576271186440678
8.311111111111112,-0.25084745762711863
8.31388888888889,-0.24067796610169492
8.316666666666666,-0.23728813559322035
8.319444444444445,-0.2440677966101695
8.322222222222223,-0.2542372881355932
8.325000000000001,-0.2576271186440678
8.327777777777778,-0.2542372881355932
8.330555555555556,-0.2440677966101695
8.333333333333334,-0.23728813559322035
8.336111111111112,-0.2440677966101695
8.338888888888889,-0.2542372881355932
8.341666666666667,-0.24745762711864408
8.344444444444445,-0.23728813559322035
8.347222222222223,-0.23728813559322035
8.35,-0.25084745762711863
8.352777777777778,-0.2677966101694915
8.355555555555556,-0.2745762711864407
8.358333333333334,-0.2677966101694915
8.36111111111111,-0.2542372881355932
8.363888888888889,-0.24745762711864408
8.366666666666667,-0.26101694915254237
8.369444444444445,-0.2711864406779661
8.372222222222222,-0.26440677966101694
8.375,-0.2677966101694915
8.377777777777778,-0.26440677966101694
8.380555555555556,-0.26101694915254237
8.383333333333333,-0.2677966101694915
8.386111111111111,-0.28135593220338984
8.38888888888889,-0.28135593220338984
8.391666666666667,-0.27796610169491526
8.394444444444444,-0.2711864406779661
8.397222222222222,-0.26440677966101694
8.4,-0.2711864406779661
8.402777777777779,-0.2847457627118644
8.405555555555555,-0.288135593220339
8.408333333333333,-0.27796610169491526
8.411111111111111,-0.2677966101694915
8.41388888888889,-0.2711864406779661
8.416666666666668,-0.28135593220338984
8.419444444444444,-0.28135593220338984
8.422222222222222,-0.29491525423728815
8.425,-0.29152542372881357
8.427777777777779,-0.28135593220338984
8.430555555555555,-0.2847457627118644
8.433333333333334,-0.2847457627118644
8.436111111111112,-0.2847457627118644
8.43888888888889,-0.29152542372881357
8.441666666666666,-0.29491525423728815
8.444444444444445,-0.28135593220338984
8.447222222222223,-0.2711864406779661
8.450000000000001,-0.28135593220338984
8.452777777777778,-0.28135593220338984
8.455555555555556,-0.27796610169491526
8.458333333333334,-0.27796610169491526
8.461111111111112,-0.27796610169491526
8.463888888888889,-0.27796610169491526
8.466666666666667,-0.2745762711864407
8.469444444444445,-0.2745762711864407
8.472222222222223,-0.2847457627118644
8.475,-0.29491525423728815
8.477777777777778,-0.2847457627118644
8.480555555555556,-0.27796610169491526
8.483333333333334,-0.27796610169491526
8.48611111111111,-0.29491525423728815
8.488888888888889,-0.2983050847457627
8.491666666666667,-0.28135593220338984
8.494444444444445,-0.2711864406779661
8.497222222222222,-0.27796610169491526
8.5,-0.27796610169491526
8.502777777777778,-0.2847457627118644
8.505555555555556,-0.2847457627118644
8.508333333333333,-0.28135593220338984
8.511111111111111,-0.27796610169491526
8.51388888888889,-0.2745762711864407
8.516666666666667,-0.27796610169491526
8.519444444444444,-0.288135593220339
8.522222222222222,-0.288135593220339
8.525,-0.2847457627118644
8.527777777777779,-0.2847457627118644
8.530555555555555,-0.28135593220338984
8.533333333333333,-0.27796610169491526
8.536111111111111,-0.27796610169491526
8.53888888888889,-0.2847457627118644
8.541666666666668,-0.29152542372881357
8.544444444444444,-0.28135593220338984
8.547222222222222,-0.2677966101694915
8.55,-0.2711864406779661
8.552777777777779,-0.28135593220338984
8.555555555555555,-0.29491525423728815
8.558333333333334,-0.2983050847457627
8.561111111111112,-0.28135593220338984
8.56388888888889,-0.26101694915254237
8.566666666666666,-0.25084745762711863
8.569444444444445,-0.2440677966101695
8.572222222222223,-0.23728813559322035
8.575000000000001,-0.23389830508474577
8.577777777777778,-0.22372881355932203
8.580555555555556,-0.20677966101694914
8.583333333333334,-0.19661016949152543
8.586111111111112,-0.19322033898305085
8.588888888888889,-0.19661016949152543
8.591666666666667,-0.18983050847457628
8.594444444444445,-0.17966101694915254
8.597222222222223,-0.16271186440677965
8.6,-0.13898305084745763
8.602777777777778,-0.12542372881355932
8.605555555555556,-0.12203389830508475
8.608333333333334,-0.10847457627118644
8.61111111111111,-0.09830508474576272
8.613888888888889,-0.09830508474576272
8.616666666666667,-0.10847457627118644
8.619444444444445,-0.12203389830508475
8.622222222222222,-0.12542372881355932
8.625,-0.10847457627118644
8.627777777777778,-0.0847457627118644
8.630555555555556,-0.08135593220338982
8.633333333333333,-0.12203389830508475
8.636111111111111,-0.1694915254237288
8.63888888888889,-0.1864406779661017
8.641666666666667,-0.17627118644067796
8.644444444444444,-0.17627118644067796
8.647222222222222,-0.17966101694915254
8.65,-0.19661016949152543
8.652777777777779,-0.2
8.655555555555555,-0.2135593220338983
8.658333333333333,-0.2271186440677966
8.661111111111111,-0.24745762711864408
8.66388888888889,-0.2677966101694915
8.666666666666668,-0.28135593220338984
8.669444444444444,-0.29152542372881357
8.672222222222222,-0.3152542372881356
8.675,-0.3220338983050847
8.677777777777779,-0.3220338983050847
8.680555555555555,-0.3220338983050847
8.683333333333334,-0.31864406779661014
8.686111111111112,-0.33220338983050846
8.68888888888889,-0.3423728813559322
8.691666666666666,-0.33559322033898303
8.694444444444445,-0.3220338983050847
8.697222222222223,-0.3288135593220339
8.700000000000001,-0.34576271186440677
8.702777777777778,-0.3525423728813559
8.705555555555556,-0.33559322033898303
8.708333333333334,-0.3254237288135593
8.711111111111112,-0.3254237288135593
8.713888888888889,-0.3254237288135593
8.716666666666667,-0.33559322033898303
8.719444444444445,-0.3525423728813559
8.722222222222223,-0.36271186440677966
8.725,-0.376271186440678
8.727777777777778,-0.3864406779661017
8.730555555555556,-0.3525423728813559
8.733333333333334,-0.2711864406779661
8.73611111111111,-0.18305084745762712
8.738888888888889,-0.06779661016949153
8.741666666666667,0.11864406779661017
8.744444444444445,0.38305084745762713
8.747222222222222,0.7288135593220338
8.75,1.2203389830508475
8.752777777777778,1.8576271186440678
8.755555555555556,2.549152542372881
8.758333333333333,3.111864406779661
8.761111111111111,3.3559322033898304
8.76388888888889,3.2203389830508473
8.766666666666667,2.871186440677966
8.769444444444444,2.4305084745762713
8.772222222222222,1.8338983050847457
8.775,1.0033898305084745
8.777777777777779,0.15254237288135594
8.780555555555555,-0.4135593220338983
8.783333333333333,-0.6813559322033899
8.786111111111111,-0.7186440677966102
8.78888888888889,-0.6135593220338983
8.791666666666668,-0.4847457627118644
8.794444444444444,-0.4101694915254237
8.797222222222222,-0.39322033898305087
8.8,-0.4101694915254237
8.802777777777779,-0.43050847457627117
8.805555555555555,-0.42033898305084744
8.808333333333334,-0.3864406779661017
8.811111111111112,-0.36271186440677966
8.81388888888889,-0.3525423728813559
8.816666666666666,-0.3423728813559322
8.819444444444445,-0.34576271186440677
8.822222222222223,-0.3389830508474576
8.825000000000001,-0.3389830508474576
8.827777777777778,-0.3254237288135593
8.830555555555556,-0.3254237288135593
8.833333333333334,-0.3254237288135593
8.836111111111112,-0.33220338983050846
8.838888888888889,-0.34576271186440677
8.841666666666667,-0.3423728813559322
8.844444444444445,-0.33559322033898303
8.847222222222223,-0.33220338983050846
8.85,-0.33220338983050846
8.852777777777778,-0.33559322033898303
8.855555555555556,-0.33559322033898303
8.858333333333334,-0.3288135593220339
8.86111111111111,-0.3152542372881356
8.863888888888889,-0.3152542372881356
8.866666666666667,-0.31186440677966104
8.869444444444445,-0.31186440677966104
8.872222222222222,-0.3220338983050847
8.875,-0.3288135593220339
8.877777777777778,-0.3288135593220339
8.880555555555556,-0.3254237288135593
8.883333333333333,-0.3152542372881356
8.886111111111111,-0.3220338983050847
